time	gsr	ecg	emg_trapezius	emg_corrugator	emg_zygomaticus
469	2.219000e+00	-6.115969e+01	-4.512941e+01	0	0
2422	2.219000e+00	-5.738208e+01	-2.031905e+01	0	0
4375	2.219000e+00	-6.548647e+01	1.490728e+00	0	0
6328	2.219000e+00	-8.042659e+01	-3.689662e+00	0	0
8281	2.219000e+00	-7.503307e+01	1.439266e+01	0	0
10234	2.219000e+00	-6.139356e+01	6.905778e+01	0	0
12188	2.219000e+00	-6.863168e+01	3.094568e+01	0	0
14141	2.219000e+00	-5.672721e+01	9.129604e-01	0	0
16094	2.219000e+00	-4.777082e+01	-1.227361e+01	0	0
18047	2.219000e+00	-3.970094e+01	-7.182226e+01	0	0
20000	2.219000e+00	-4.079694e+01	-6.225475e+01	0	0
21953	2.219000e+00	-5.674132e+01	-4.052244e+01	0	0
23906	2.219000e+00	-6.046162e+01	2.551525e+00	0	0
25859	2.219000e+00	-5.782176e+01	-6.427401e+00	0	0
27813	2.219000e+00	-7.650372e+01	8.554503e+00	0	0
29766	2.219000e+00	-7.091057e+01	6.934166e+01	0	0
31719	2.219000e+00	-6.014395e+01	5.306432e+01	0	0
33672	2.219000e+00	-5.529874e+01	-1.364962e+01	0	0
35625	2.219000e+00	-3.339742e+01	-2.242597e-01	0	0
37578	2.219000e+00	-3.756628e+01	-2.099905e+01	0	0
39531	2.219000e+00	-3.509563e+01	-7.998762e+01	0	0
41484	2.219000e+00	-5.132177e+01	-3.405642e+01	0	0
43438	2.219000e+00	-5.904567e+01	5.543873e-01	0	0
45391	2.219000e+00	-6.396018e+01	-1.779927e+00	0	0
47344	2.219000e+00	-7.123389e+01	-6.493250e+00	0	0
49297	2.219000e+00	-7.227843e+01	1.896038e+01	0	0
51250	2.219000e+00	-6.095959e+01	6.864880e+01	0	0
53203	2.219000e+00	-6.096841e+01	-8.252708e+00	0	0
55156	2.218760e+00	-4.704086e+01	6.165659e+00	0	0
57109	2.218000e+00	-5.272880e+01	-1.859140e+01	0	0
59063	2.218240e+00	-6.150461e+01	-7.198614e+01	0	0
61016	2.218760e+00	-5.737148e+01	-1.944855e+01	0	0
62969	2.218000e+00	-7.024029e+01	-6.395988e-01	0	0
64922	2.218000e+00	-8.065422e+01	-3.777434e+00	0	0
66875	2.218000e+00	-8.123267e+01	-7.994116e+00	0	0
68828	2.218000e+00	-7.863076e+01	8.900616e+00	0	0
70781	2.218000e+00	-7.222538e+01	6.368058e+01	0	0
72734	2.218000e+00	-6.197848e+01	2.994305e+01	0	0
74688	2.218000e+00	-5.976975e+01	-9.208606e-01	0	0
76641	2.218000e+00	-6.015936e+01	-1.143226e+01	0	0
78594	2.218000e+00	-6.686246e+01	-6.246450e+01	0	0
80547	2.218000e+00	-7.326471e+01	-4.883579e+01	0	0
82500	2.218000e+00	-7.463455e+01	-2.655438e+01	0	0
84453	2.218000e+00	-9.336624e+01	3.470741e+00	0	0
86406	2.218000e+00	-9.127335e+01	-4.048478e+00	0	0
88359	2.218000e+00	-8.559885e+01	1.213426e+01	0	0
90313	2.218000e+00	-8.717975e+01	6.107943e+01	0	0
92266	2.218000e+00	-8.364179e+01	2.791804e+01	0	0
94219	2.218000e+00	-6.369060e+01	-9.426814e-01	0	0
96172	2.218000e+00	-5.957493e+01	-7.340152e+00	0	0
98125	2.218000e+00	-6.144053e+01	-5.077173e+01	0	0
100078	2.218000e+00	-6.705354e+01	-6.032428e+01	0	0
102031	2.218000e+00	-7.782752e+01	-3.876517e+01	0	0
103984	2.218000e+00	-8.166934e+01	5.749658e+00	0	0
105938	2.218000e+00	-9.732311e+01	-3.706049e+00	0	0
107891	2.218000e+00	-9.552804e+01	1.226151e+01	0	0
109844	2.218000e+00	-7.698705e+01	7.429370e+01	0	0
111797	2.217758e+00	-8.011590e+01	5.669472e+01	0	0
113750	2.217242e+00	-6.891323e+01	-8.530542e+00	0	0
115703	2.218000e+00	-5.580458e+01	4.395952e+00	0	0
117656	2.218000e+00	-6.068750e+01	-1.815648e+01	0	0
119609	2.218000e+00	-6.724969e+01	-7.811163e+01	0	0
121563	2.218000e+00	-6.711954e+01	-2.713969e+01	0	0
123516	2.218000e+00	-7.629091e+01	3.074730e+00	0	0
125469	2.218000e+00	-8.937403e+01	1.617356e+00	0	0
127422	2.218000e+00	-7.739483e+01	-2.762842e+00	0	0
129375	2.217757e+00	-7.825646e+01	2.540970e+01	0	0
131328	2.217000e+00	-7.761530e+01	7.682603e+01	0	0
133281	2.217000e+00	-7.189910e+01	-6.133533e+00	0	0
135234	2.217000e+00	-6.150014e+01	8.913878e+00	0	0
137188	2.217000e+00	-6.000629e+01	-1.762072e+01	0	0
139141	2.217000e+00	-5.935063e+01	-7.505041e+01	0	0
141094	2.217000e+00	-6.781221e+01	-1.908657e+01	0	0
143047	2.217000e+00	-6.690566e+01	-3.594623e+00	0	0
145000	2.217000e+00	-7.856372e+01	-5.976829e+00	0	0
146953	2.217000e+00	-7.308317e+01	-9.949651e+00	0	0
148906	2.217000e+00	-8.432935e+01	1.164725e+01	0	0
150859	2.217000e+00	-7.719435e+01	6.639279e+01	0	0
152813	2.217000e+00	-6.642729e+01	1.917054e+01	0	0
154766	2.217000e+00	-5.778638e+01	2.190283e+00	0	0
156719	2.217000e+00	-6.897541e+01	-7.782796e+00	0	0
158672	2.217000e+00	-6.761488e+01	-5.571707e+01	0	0
160625	2.217000e+00	-6.088978e+01	-5.089798e+01	0	0
162578	2.217000e+00	-7.667647e+01	-3.036267e+01	0	0
164531	2.217000e+00	-8.772372e+01	1.093202e+01	0	0
166484	2.217000e+00	-8.694455e+01	-5.137913e-01	0	0
168438	2.217000e+00	-8.445623e+01	1.606542e+01	0	0
170391	2.217000e+00	-7.349993e+01	6.300088e+01	0	0
172344	2.217000e+00	-7.356242e+01	2.170309e+01	0	0
174297	2.217000e+00	-6.705792e+01	3.432151e+00	0	0
176250	2.217000e+00	-5.353654e+01	-1.047239e+01	0	0
178203	2.217000e+00	-5.879312e+01	-6.519705e+01	0	0
180156	2.217000e+00	-6.558082e+01	-5.355643e+01	0	0
182109	2.217000e+00	-5.655386e+01	-2.990030e+01	0	0
184063	2.217000e+00	-4.768743e+01	9.205832e+00	0	0
186016	2.217000e+00	-5.311673e+01	1.290215e+00	0	0
187969	2.216755e+00	-2.754677e+01	1.593268e+01	0	0
189922	2.216245e+00	5.301195e+00	7.438388e+01	0	0
191875	2.216755e+00	3.608769e+01	5.923653e+01	0	0
193828	2.216000e+00	4.262004e+01	-4.478500e+00	0	0
195781	2.216000e+00	7.403449e+01	6.348903e+00	0	0
197734	2.216000e+00	8.393975e+01	-2.034250e+01	0	0
199688	2.216000e+00	8.458383e+01	-7.891939e+01	0	0
201641	2.216000e+00	6.631136e+01	-4.831510e+01	0	0
203594	2.216000e+00	7.107096e+01	6.940684e+00	0	0
205547	2.216000e+00	6.591729e+01	6.430828e-01	0	0
207500	2.216000e+00	7.565961e+01	-3.409944e+00	0	0
209453	2.216000e+00	1.007913e+02	2.258309e+01	0	0
211406	2.216000e+00	1.102371e+02	7.154309e+01	0	0
213359	2.216000e+00	1.310930e+02	-7.185047e+00	0	0
215313	2.216000e+00	1.398170e+02	7.884254e+00	0	0
217266	2.216000e+00	1.450213e+02	-1.750570e+01	0	0
219219	2.216000e+00	1.399347e+02	-7.303926e+01	0	0
221172	2.216000e+00	1.361353e+02	-1.993104e+01	0	0
223125	2.216000e+00	1.384910e+02	-4.048253e+00	0	0
225078	2.216000e+00	1.696044e+02	-5.946657e+00	0	0
227031	2.216000e+00	1.915702e+02	-9.420646e+00	0	0
228984	2.216000e+00	1.848387e+02	1.184483e+01	0	0
230938	2.216000e+00	1.944996e+02	5.702857e+01	0	0
232891	2.216000e+00	1.913042e+02	5.246871e+00	0	0
234844	2.216000e+00	1.925317e+02	2.593407e+00	0	0
236797	2.216000e+00	1.969323e+02	-1.303058e+01	0	0
238750	2.216000e+00	1.777833e+02	-6.324224e+01	0	0
240703	2.216000e+00	1.548140e+02	-4.334146e+01	0	0
242656	2.216000e+00	1.532266e+02	-1.931214e+01	0	0
244609	2.216000e+00	1.389731e+02	4.854378e+00	0	0
246563	2.216000e+00	1.361616e+02	-2.356529e+00	0	0
248516	2.216000e+00	1.300943e+02	1.539566e+01	0	0
250469	2.216000e+00	9.240102e+01	6.501965e+01	0	0
252422	2.216000e+00	7.638416e+01	2.586700e+01	0	0
254375	2.216000e+00	6.592816e+01	2.570972e+00	0	0
256328	2.215752e+00	5.485251e+01	-1.037257e+01	0	0
258281	2.215000e+00	2.410202e+01	-6.706959e+01	0	0
260234	2.215248e+00	6.632795e+00	-5.932320e+01	0	0
262188	2.216000e+00	-1.833180e+00	-3.383929e+01	0	0
264141	2.215751e+00	-2.492200e+01	9.771509e+00	0	0
266094	2.215000e+00	-3.877233e+01	1.496679e+00	0	0
268047	2.215000e+00	-6.420705e+01	1.459799e+01	0	0
270000	2.215000e+00	-6.777454e+01	7.241915e+01	0	0
271953	2.215000e+00	-6.815683e+01	6.436184e+01	0	0
273906	2.215000e+00	-5.841430e+01	-2.251607e+00	0	0
275859	2.215000e+00	-4.989077e+01	8.994517e-01	0	0
277813	2.215000e+00	-7.214375e+01	-4.436841e+01	0	0
279766	2.215000e+00	-8.441034e+01	-8.232806e+01	0	0
281719	2.215000e+00	-9.113061e+01	-4.651733e+01	0	0
283672	2.215000e+00	-9.058031e+01	7.133307e+00	0	0
285625	2.215000e+00	-9.076410e+01	1.852331e+00	0	0
287578	2.215000e+00	-9.948197e+01	-2.171976e+00	0	0
289531	2.215000e+00	-1.067391e+02	2.700931e+01	0	0
291484	2.215000e+00	-1.027784e+02	7.938276e+01	0	0
293438	2.215000e+00	-9.638667e+01	-9.893596e+00	0	0
295391	2.215000e+00	-9.125049e+01	6.443866e+00	0	0
297344	2.215000e+00	-1.026462e+02	-2.428856e+01	0	0
299297	2.215000e+00	-9.489064e+01	-8.478083e+01	0	0
301250	2.215000e+00	-1.004394e+02	-2.380871e+01	0	0
303203	2.215000e+00	-1.081720e+02	-1.333059e+01	0	0
305156	2.215000e+00	-1.269728e+02	-1.344771e+01	0	0
307109	2.215000e+00	-1.334811e+02	-1.586628e+01	0	0
309063	2.215000e+00	-1.266568e+02	7.815085e+00	0	0
311016	2.215000e+00	-1.243951e+02	6.385898e+01	0	0
312969	2.215000e+00	-1.202417e+02	1.823995e+01	0	0
314922	2.215000e+00	-1.108162e+02	1.846816e-01	0	0
316875	2.215000e+00	-1.129816e+02	-1.045886e+01	0	0
318828	2.214750e+00	-1.165250e+02	-5.843387e+01	0	0
320781	2.214251e+00	-1.267416e+02	-3.106610e+01	0	0
322734	2.215000e+00	-1.255906e+02	-2.332078e+01	0	0
324688	2.215000e+00	-1.268800e+02	6.562067e+00	0	0
326641	2.215000e+00	-1.163783e+02	-3.054165e+00	0	0
328594	2.214749e+00	-1.197342e+02	1.583223e+01	0	0
330547	2.214000e+00	-1.176256e+02	7.070023e+01	0	0
332500	2.214000e+00	-1.146673e+02	3.498260e+01	0	0
334453	2.214000e+00	-1.125315e+02	5.981739e+00	0	0
336406	2.214000e+00	-1.006258e+02	-6.575391e+00	0	0
338359	2.214000e+00	-1.065189e+02	-6.273842e+01	0	0
340313	2.214000e+00	-1.182059e+02	-4.852177e+01	0	0
342266	2.214000e+00	-1.489507e+02	-2.848464e+01	0	0
344219	2.214000e+00	-1.819591e+02	1.086040e+01	0	0
346172	2.214000e+00	-2.067327e+02	2.651220e+00	0	0
348125	2.214000e+00	-1.969616e+02	1.508195e+01	0	0
350078	2.214000e+00	-1.648001e+02	6.927827e+01	0	0
352031	2.214000e+00	-8.492536e+01	6.037045e+01	0	0
353984	2.214000e+00	-9.206166e-01	-1.985080e+00	0	0
355938	2.214000e+00	9.991965e+01	-4.072773e-01	0	0
357891	2.214000e+00	1.897853e+02	-4.366229e+01	0	0
359844	2.214000e+00	3.096833e+02	-7.709442e+01	0	0
361797	2.214000e+00	5.248717e+02	-4.338723e+01	0	0
363750	2.214000e+00	8.060535e+02	1.184505e+01	0	0
365703	2.214000e+00	1.034854e+03	5.208288e+00	0	0
367656	2.214000e+00	1.286951e+03	4.512911e+00	0	0
369609	2.214000e+00	1.548506e+03	4.024971e+01	0	0
371563	2.214000e+00	1.773056e+03	7.064683e+01	0	0
373516	2.214000e+00	1.924163e+03	-1.268752e+01	0	0
375469	2.214000e+00	1.883165e+03	5.287605e+00	0	0
377422	2.214000e+00	1.752956e+03	-2.534913e+01	0	0
379375	2.214000e+00	1.429513e+03	-9.020781e+01	0	0
381328	2.214000e+00	1.085163e+03	-2.869611e+01	0	0
383281	2.214000e+00	8.774802e+02	-6.920269e+00	0	0
385234	2.214000e+00	6.821515e+02	-3.882966e+00	0	0
387188	2.214000e+00	4.828003e+02	-7.167359e+00	0	0
389141	2.214000e+00	1.081959e+02	1.754061e+01	0	0
391094	2.213746e+00	-1.680462e+02	6.309594e+01	0	0
393047	2.213000e+00	-2.514442e+02	-7.705971e+00	0	0
395000	2.213000e+00	-2.807037e+02	1.154710e+01	0	0
396953	2.213000e+00	-2.630201e+02	-9.389144e+00	0	0
398906	2.213000e+00	-2.338015e+02	-6.239367e+01	0	0
400859	2.213000e+00	-1.988693e+02	-3.385763e+01	0	0
402813	2.213000e+00	-1.634113e+02	-1.932316e+01	0	0
404766	2.213000e+00	-1.276927e+02	4.579449e+00	0	0
406719	2.213000e+00	-1.054755e+02	-3.411291e+00	0	0
408672	2.213000e+00	-8.872811e+01	1.602871e+01	0	0
410625	2.213000e+00	-5.022586e+01	6.586710e+01	0	0
412578	2.213000e+00	-2.370211e+01	2.206359e+01	0	0
414531	2.213000e+00	-3.204719e+01	2.273612e+00	0	0
416484	2.213000e+00	-2.346844e+01	-1.243458e+01	0	0
418438	2.213000e+00	-4.142852e+01	-6.731511e+01	0	0
420391	2.213000e+00	-4.716056e+01	-5.045192e+01	0	0
422344	2.213000e+00	-5.137722e+01	-2.427872e+01	0	0
424297	2.213000e+00	-5.756371e+01	6.714401e+00	0	0
426250	2.213000e+00	-7.045650e+01	-1.894168e+00	0	0
428203	2.213000e+00	-7.137208e+01	1.313694e+01	0	0
430156	2.213000e+00	-6.587103e+01	7.167427e+01	0	0
432109	2.213000e+00	-5.599942e+01	5.046766e+01	0	0
434063	2.213000e+00	-4.441531e+01	-4.565980e+00	0	0
436016	2.213000e+00	-2.642229e+01	-1.884905e+00	0	0
437969	2.213000e+00	-3.362418e+01	-4.522145e+01	0	0
439922	2.213000e+00	-3.875548e+01	-7.505679e+01	0	0
441875	2.213000e+00	-4.673345e+01	-4.908866e+01	0	0
443828	2.213000e+00	-5.878586e+01	1.531794e+01	0	0
445781	2.213000e+00	-7.368325e+01	9.350375e+00	0	0
447734	2.213000e+00	-6.825945e+01	6.156746e+00	0	0
449688	2.213000e+00	-4.306366e+01	3.913477e+01	0	0
451641	2.213000e+00	-3.545198e+01	8.025958e+01	0	0
453594	2.212744e+00	-2.747304e+01	-1.155788e+01	0	0
455547	2.212256e+00	-1.605131e+01	9.547368e+00	0	0
457500	2.212744e+00	-2.322227e+01	-2.355646e+01	0	0
459453	2.212256e+00	-2.820093e+01	-9.386016e+01	0	0
461406	2.213000e+00	-2.251575e+01	-3.051093e+01	0	0
463359	2.213000e+00	-1.873784e+01	-1.093722e+01	0	0
465313	2.213000e+00	-2.678094e+01	-8.631470e+00	0	0
467266	2.212743e+00	-3.474521e+01	-1.090131e+01	0	0
469219	2.212000e+00	-2.350286e+01	1.533349e+01	0	0
471172	2.212000e+00	-1.833606e+01	5.984574e+01	0	0
473125	2.212000e+00	-8.015410e+00	-1.072668e+01	0	0
475078	2.212000e+00	-8.076989e+00	1.097195e+01	0	0
477031	2.212000e+00	2.605187e+00	-1.114448e+01	0	0
478984	2.212000e+00	-1.934750e+00	-6.159189e+01	0	0
480938	2.212000e+00	-8.642908e+00	-3.258705e+01	0	0
482891	2.212000e+00	-1.076311e+01	-2.372550e+01	0	0
484844	2.212000e+00	-5.838993e+00	7.079251e+00	0	0
486797	2.212000e+00	-1.002354e+01	9.367817e-02	0	0
488750	2.212000e+00	-5.609260e+00	1.760485e+01	0	0
490703	2.212000e+00	2.948043e+00	6.688824e+01	0	0
492656	2.212000e+00	3.394564e-01	3.234047e+01	0	0
494609	2.212000e+00	1.068142e+01	3.235403e+00	0	0
496563	2.212000e+00	3.682066e+01	-2.621480e+00	0	0
498516	2.212000e+00	3.150090e+01	-4.597464e+01	0	0
500469	2.212000e+00	3.599649e+00	-4.943664e+01	0	0
502422	2.212000e+00	8.872845e+00	-1.862880e+01	0	0
504375	2.212000e+00	1.819408e+01	8.864001e+00	0	0
506328	2.212000e+00	5.204221e+00	2.778718e+00	0	0
508281	2.212000e+00	1.357819e+01	1.179259e+01	0	0
510234	2.212000e+00	2.363643e+01	5.723307e+01	0	0
512188	2.212000e+00	3.572648e+01	5.214918e+01	0	0
514141	2.212000e+00	5.425939e+01	-9.704297e-01	0	0
516094	2.212000e+00	6.280268e+01	-7.528567e+00	0	0
518047	2.212000e+00	6.654241e+01	-5.982517e+01	0	0
520000	2.212000e+00	5.612631e+01	-6.570555e+01	0	0
521953	2.212000e+00	7.664646e+01	-3.984537e+01	0	0
523906	2.212000e+00	7.014794e+01	1.177391e+01	0	0
525859	2.212000e+00	5.604442e+01	3.275945e+00	0	0
527813	2.212000e+00	6.389219e+01	7.540884e+00	0	0
529766	2.212000e+00	6.634445e+01	4.852518e+01	0	0
531719	2.211741e+00	7.109132e+01	6.169474e+01	0	0
533672	2.211000e+00	9.240366e+01	-8.901833e+00	0	0
535625	2.211000e+00	1.070471e+02	7.505607e+00	0	0
537578	2.211000e+00	1.099925e+02	-1.903686e+01	0	0
539531	2.211000e+00	1.156938e+02	-7.782101e+01	0	0
541484	2.211000e+00	1.135542e+02	-2.688560e+01	0	0
543438	2.211000e+00	1.070879e+02	-5.395233e+00	0	0
545391	2.211000e+00	9.849894e+01	-4.359642e+00	0	0
547344	2.211000e+00	1.014648e+02	-6.936392e+00	0	0
549297	2.211000e+00	1.066514e+02	1.637999e+01	0	0
551250	2.211000e+00	1.217062e+02	5.491853e+01	0	0
553203	2.211000e+00	1.389160e+02	-1.021387e+01	0	0
555156	2.211000e+00	1.547509e+02	7.294443e+00	0	0
557109	2.211000e+00	1.634916e+02	-1.197362e+01	0	0
559063	2.211000e+00	1.630766e+02	-5.536926e+01	0	0
561016	2.211000e+00	1.702485e+02	-2.078597e+01	0	0
562969	2.211000e+00	1.814965e+02	-1.347608e+01	0	0
564922	2.211000e+00	1.938758e+02	4.037292e+00	0	0
566875	2.211000e+00	2.075721e+02	-3.876311e+00	0	0
568828	2.211000e+00	2.173003e+02	1.488510e+01	0	0
570781	2.211000e+00	2.296847e+02	6.025131e+01	0	0
572734	2.211000e+00	2.433802e+02	1.873477e+01	0	0
574688	2.211000e+00	2.591280e+02	1.263020e+00	0	0
576641	2.211000e+00	2.753210e+02	-1.077058e+01	0	0
578594	2.211000e+00	2.730135e+02	-6.055928e+01	0	0
580547	2.211000e+00	2.799808e+02	-5.362117e+01	0	0
582500	2.211000e+00	2.942998e+02	-2.319315e+01	0	0
584453	2.211000e+00	3.109539e+02	3.705873e+00	0	0
586406	2.211000e+00	3.043016e+02	-3.523600e+00	0	0
588359	2.211000e+00	3.127562e+02	1.282384e+01	0	0
590313	2.211000e+00	3.330277e+02	6.907935e+01	0	0
592266	2.211000e+00	3.402512e+02	4.515966e+01	0	0
594219	2.211000e+00	3.721782e+02	-3.254960e+00	0	0
596172	2.211000e+00	3.925840e+02	-7.283649e+00	0	0
598125	2.210738e+00	3.982429e+02	-5.347439e+01	0	0
600078	2.210000e+00	4.052879e+02	-6.525090e+01	0	0
602031	2.210262e+00	4.213321e+02	-3.872596e+01	0	0
603984	2.210738e+00	4.211587e+02	5.385126e+00	0	0
605938	2.210263e+00	4.375897e+02	-2.608715e+00	0	0
607891	2.210737e+00	4.485294e+02	6.917463e+00	0	0
609844	2.210000e+00	4.693670e+02	5.556504e+01	0	0
611797	2.210000e+00	4.881431e+02	5.789590e+01	0	0
613750	2.210000e+00	4.986351e+02	-8.632725e+00	0	0
615703	2.210000e+00	5.220087e+02	6.513749e+00	0	0
617656	2.210000e+00	5.342972e+02	-1.758397e+01	0	0
619609	2.210000e+00	5.322656e+02	-7.680050e+01	0	0
621563	2.210000e+00	5.232192e+02	-3.324045e+01	0	0
623516	2.210000e+00	5.250149e+02	3.602507e+00	0	0
625469	2.210000e+00	5.204338e+02	4.981980e-01	0	0
627422	2.210000e+00	5.238305e+02	-4.321406e+00	0	0
629375	2.210000e+00	5.309522e+02	1.932789e+01	0	0
631328	2.210000e+00	5.440002e+02	5.883196e+01	0	0
633281	2.210000e+00	5.675873e+02	-9.275857e+00	0	0
635234	2.210000e+00	5.752008e+02	6.456781e+00	0	0
637188	2.210000e+00	5.606850e+02	-1.626371e+01	0	0
639141	2.210000e+00	5.612753e+02	-6.155959e+01	0	0
641094	2.210000e+00	5.438774e+02	-1.971203e+01	0	0
643047	2.210000e+00	5.150660e+02	-4.929426e+00	0	0
645000	2.210000e+00	4.849731e+02	1.695157e+00	0	0
646953	2.210000e+00	4.623735e+02	-3.137955e+00	0	0
648906	2.210000e+00	4.362058e+02	1.372945e+01	0	0
650859	2.210000e+00	4.122422e+02	6.323642e+01	0	0
652813	2.210000e+00	4.021958e+02	3.073923e+01	0	0
654766	2.210000e+00	3.805021e+02	-1.096355e+00	0	0
656719	2.210000e+00	3.613472e+02	-7.563210e+00	0	0
658672	2.210000e+00	3.379492e+02	-4.978689e+01	0	0
660625	2.210000e+00	2.997050e+02	-5.821234e+01	0	0
662578	2.210000e+00	2.705613e+02	-3.525884e+01	0	0
664531	2.210000e+00	2.379322e+02	5.835947e+00	0	0
666484	2.210000e+00	2.074391e+02	-3.549075e+00	0	0
668438	2.210000e+00	1.749554e+02	1.550058e+01	0	0
670391	2.210000e+00	1.536749e+02	7.393568e+01	0	0
672344	2.209734e+00	1.447751e+02	4.534270e+01	0	0
674297	2.209000e+00	1.298975e+02	5.180659e-01	0	0
676250	2.209000e+00	1.134058e+02	-1.130605e+01	0	0
678203	2.209000e+00	1.003843e+02	-7.198898e+01	0	0
680156	2.209000e+00	7.682179e+01	-6.976254e+01	0	0
682109	2.209266e+00	5.221347e+01	-4.469234e+01	0	0
684063	2.209733e+00	4.579116e+01	8.226798e+00	0	0
686016	2.209000e+00	3.036247e+01	-1.938499e+00	0	0
687969	2.209000e+00	2.229906e+01	8.625057e+00	0	0
689922	2.209000e+00	2.908869e+01	6.346417e+01	0	0
691875	2.209000e+00	1.886382e+01	6.599060e+01	0	0
693828	2.209000e+00	2.134616e+01	-9.501405e+00	0	0
695781	2.209000e+00	3.543810e+01	8.250921e+00	0	0
697734	2.209000e+00	1.875586e+01	-2.087332e+01	0	0
699688	2.209000e+00	1.349418e+01	-8.289475e+01	0	0
701641	2.209000e+00	8.670900e+00	-2.500227e+01	0	0
703594	2.209000e+00	-6.279351e+00	2.772474e+00	0	0
705547	2.209000e+00	-3.531648e+01	8.873711e-01	0	0
707500	2.209000e+00	-3.984189e+01	-5.944654e+00	0	0
709453	2.209000e+00	-2.784518e+01	2.178750e+01	0	0
711406	2.209000e+00	-2.340663e+01	6.682504e+01	0	0
713359	2.209000e+00	-2.297060e+01	-1.263177e+01	0	0
715313	2.209000e+00	-1.135807e+01	5.811398e+00	0	0
717266	2.209000e+00	-9.595738e+00	-2.171154e+01	0	0
719219	2.209000e+00	-1.839276e+01	-6.958717e+01	0	0
721172	2.209000e+00	-2.503011e+01	-1.687750e+01	0	0
723125	2.209000e+00	-2.833214e+01	-1.039415e+01	0	0
725078	2.209000e+00	-3.544664e+01	1.651174e-01	0	0
727031	2.209000e+00	-3.588118e+01	-5.384320e+00	0	0
728984	2.209000e+00	-4.236218e+01	1.254070e+01	0	0
730938	2.209000e+00	-3.476205e+01	6.408349e+01	0	0
732891	2.209000e+00	-2.415328e+01	3.161245e+01	0	0
734844	2.209000e+00	-1.604386e+01	-5.471397e-01	0	0
736797	2.209000e+00	-1.463432e+01	-1.025655e+01	0	0
738750	2.209000e+00	-1.921275e+01	-5.758587e+01	0	0
740703	2.209000e+00	-2.820973e+01	-5.387525e+01	0	0
742656	2.209000e+00	-2.527737e+01	-3.462050e+01	0	0
744609	2.208731e+00	-2.470637e+01	6.786678e+00	0	0
746563	2.208000e+00	-2.795971e+01	-2.996879e+00	0	0
748516	2.208000e+00	-3.558210e+01	1.541025e+01	0	0
750469	2.208000e+00	-3.726160e+01	6.478731e+01	0	0
752422	2.208270e+00	-2.569280e+01	3.524275e+01	0	0
754375	2.208730e+00	-1.636775e+01	2.411227e+00	0	0
756328	2.208000e+00	-6.476984e-01	-5.624092e+00	0	0
758281	2.208000e+00	-3.276393e+01	-5.036904e+01	0	0
760234	2.208000e+00	-3.094151e+01	-5.934358e+01	0	0
762188	2.208000e+00	-4.329197e+01	-4.191849e+01	0	0
764141	2.208000e+00	-4.963352e+01	1.070233e+01	0	0
766094	2.208000e+00	-5.644680e+01	2.766709e-01	0	0
768047	2.208000e+00	-4.831708e+01	1.225488e+01	0	0
770000	2.208000e+00	-5.685794e+01	6.362277e+01	0	0
771953	2.208000e+00	-4.847916e+01	5.905739e+01	0	0
773906	2.208000e+00	-4.214003e+01	-6.474956e+00	0	0
775859	2.208000e+00	-3.882372e+01	8.249900e+00	0	0
777813	2.208000e+00	-3.275195e+01	-1.746596e+01	0	0
779766	2.208000e+00	-4.194502e+01	-8.324278e+01	0	0
781719	2.208000e+00	-3.530776e+01	-4.117354e+01	0	0
783672	2.208000e+00	-4.931869e+01	6.260850e+00	0	0
785625	2.208000e+00	-5.297580e+01	1.661696e+00	0	0
787578	2.208000e+00	-5.966169e+01	-3.668697e+00	0	0
789531	2.208000e+00	-5.139317e+01	2.746438e+01	0	0
791484	2.208000e+00	-3.282968e+01	7.411174e+01	0	0
793438	2.208000e+00	-1.339098e+01	-9.601793e+00	0	0
795391	2.208000e+00	6.909359e+00	8.143395e+00	0	0
797344	2.208000e+00	-8.349944e-01	-2.328060e+01	0	0
799297	2.208000e+00	-2.949230e+01	-7.460742e+01	0	0
801250	2.208000e+00	-2.474245e+01	-8.187197e+00	0	0
803203	2.208000e+00	-3.543007e+01	-7.114363e+00	0	0
805156	2.208000e+00	-3.756062e+01	-6.711019e+00	0	0
807109	2.208000e+00	-4.021666e+01	-1.194404e+01	0	0
809063	2.208000e+00	-5.406647e+01	1.282588e+01	0	0
811016	2.208000e+00	-4.874541e+01	6.666509e+01	0	0
812969	2.207728e+00	-3.266178e+01	1.782750e+01	0	0
814922	2.207272e+00	-2.648423e+01	6.449888e-01	0	0
816875	2.207728e+00	-3.335496e+01	-8.845754e+00	0	0
818828	2.207000e+00	-4.629940e+01	-5.766446e+01	0	0
820781	2.207000e+00	-4.146833e+01	-6.010886e+01	0	0
822734	2.207000e+00	-3.317197e+01	-2.922015e+01	0	0
824688	2.207273e+00	-3.752256e+01	8.568049e+00	0	0
826641	2.207727e+00	-5.153092e+01	1.308523e+00	0	0
828594	2.207000e+00	-5.122316e+01	2.470931e+01	0	0
830547	2.207000e+00	-3.480606e+01	7.760643e+01	0	0
832500	2.207000e+00	-3.133721e+01	3.685331e+01	0	0
834453	2.207000e+00	-2.069330e+01	1.114343e+01	0	0
836406	2.207000e+00	-1.129141e+01	-1.942550e+00	0	0
838359	2.207000e+00	-1.856860e+01	-5.565601e+01	0	0
840313	2.207000e+00	-2.904661e+01	-6.029100e+01	0	0
842266	2.207000e+00	-2.461523e+01	-3.724524e+01	0	0
844219	2.207000e+00	-3.987261e+01	1.186524e+01	0	0
846172	2.207000e+00	-5.247983e+01	2.120181e+00	0	0
848125	2.207000e+00	-4.505241e+01	7.962369e+00	0	0
850078	2.207000e+00	-5.053137e+01	5.258104e+01	0	0
852031	2.207000e+00	-4.486134e+01	6.257457e+01	0	0
853984	2.207000e+00	-3.293457e+01	-7.430585e+00	0	0
855938	2.207000e+00	-3.630966e+01	6.673230e+00	0	0
857891	2.207000e+00	-4.949197e+01	-2.393330e+01	0	0
859844	2.207000e+00	-5.786030e+01	-8.296518e+01	0	0
861797	2.207000e+00	-6.039702e+01	-4.040828e+01	0	0
863750	2.207000e+00	-7.801753e+01	6.737801e+00	0	0
865703	2.207000e+00	-8.833104e+01	2.357239e+00	0	0
867656	2.207000e+00	-7.595893e+01	-3.025454e+00	0	0
869609	2.207000e+00	-6.223240e+01	2.805009e+01	0	0
871563	2.207000e+00	-4.592972e+01	7.407786e+01	0	0
873516	2.207000e+00	-2.784992e+01	-8.840200e+00	0	0
875469	2.207000e+00	-2.511181e+01	8.397438e+00	0	0
877422	2.207000e+00	-2.606916e+01	-2.199980e+01	0	0
879375	2.207000e+00	-3.574771e+01	-7.515575e+01	0	0
881328	2.207000e+00	-4.816250e+01	-1.528824e+01	0	0
883281	2.207000e+00	-5.029630e+01	-2.646103e+00	0	0
885234	2.207000e+00	-6.236019e+01	-3.075629e+00	0	0
887188	2.207000e+00	-8.613762e+01	-6.771582e+00	0	0
889141	2.206724e+00	-7.106734e+01	1.859733e+01	0	0
891094	2.206276e+00	-5.229695e+01	6.621270e+01	0	0
893047	2.206724e+00	-5.937001e+01	1.523129e+01	0	0
895000	2.206000e+00	-5.748574e+01	6.970006e+00	0	0
896953	2.206000e+00	-6.355876e+01	-7.498732e+00	0	0
898906	2.206000e+00	-7.064249e+01	-5.075002e+01	0	0
900859	2.206000e+00	-6.462159e+01	-5.113658e+01	0	0
902813	2.206000e+00	-7.034579e+01	-3.767617e+01	0	0
904766	2.206000e+00	-8.421675e+01	1.183676e+01	0	0
906719	2.206000e+00	-9.189509e+01	6.909974e-01	0	0
908672	2.206000e+00	-9.298976e+01	1.951769e+01	0	0
910625	2.206000e+00	-8.660362e+01	6.338402e+01	0	0
912578	2.206000e+00	-8.282607e+01	2.890948e+01	0	0
914531	2.206000e+00	-7.389509e+01	5.284224e+00	0	0
916484	2.206000e+00	-7.411424e+01	-9.089402e+00	0	0
918438	2.206000e+00	-8.152002e+01	-5.831964e+01	0	0
920391	2.206000e+00	-9.387054e+01	-3.814468e+01	0	0
922344	2.206000e+00	-7.953833e+01	-1.424811e+01	0	0
924297	2.206000e+00	-8.023759e+01	7.600976e+00	0	0
926250	2.206000e+00	-9.140880e+01	1.769562e+00	0	0
928203	2.206000e+00	-8.969458e+01	1.387721e+01	0	0
930156	2.206000e+00	-7.414906e+01	6.663403e+01	0	0
932109	2.206000e+00	-7.399240e+01	5.785330e+01	0	0
934063	2.206000e+00	-7.247294e+01	-5.154809e+00	0	0
936016	2.206000e+00	-7.421767e+01	7.446943e+00	0	0
937969	2.206000e+00	-8.093209e+01	-2.190284e+01	0	0
939922	2.206000e+00	-7.804932e+01	-7.702397e+01	0	0
941875	2.206000e+00	-8.813553e+01	-3.494564e+01	0	0
943828	2.206000e+00	-8.755525e+01	7.922505e+00	0	0
945781	2.206000e+00	-1.083453e+02	3.283336e+00	0	0
947734	2.206000e+00	-1.131870e+02	-2.307982e+00	0	0
949688	2.206000e+00	-9.686838e+01	2.803805e+01	0	0
951641	2.206000e+00	-7.845055e+01	7.169046e+01	0	0
953594	2.206000e+00	-8.150614e+01	-7.911488e+00	0	0
955547	2.206000e+00	-7.963668e+01	8.822560e+00	0	0
957500	2.206000e+00	-8.696122e+01	-2.297439e+01	0	0
959453	2.206000e+00	-9.948140e+01	-7.109884e+01	0	0
961406	2.206000e+00	-9.921150e+01	-1.181521e+01	0	0
963359	2.205721e+00	-1.072506e+02	-1.156385e+01	0	0
965313	2.205280e+00	-1.092157e+02	-1.004379e+01	0	0
967266	2.205720e+00	-1.082902e+02	-1.282913e+01	0	0
969219	2.205000e+00	-1.039168e+02	1.098373e+01	0	0
971172	2.205000e+00	-8.989961e+01	5.408371e+01	0	0
973125	2.205000e+00	-8.277706e+01	9.780871e+00	0	0
975078	2.205000e+00	-6.173314e+01	2.773893e+00	0	0
977031	2.205000e+00	-6.466439e+01	-9.291927e+00	0	0
978984	2.205000e+00	-8.711569e+01	-5.565627e+01	0	0
980938	2.205000e+00	-8.668755e+01	-5.078039e+01	0	0
982891	2.205000e+00	-9.091769e+01	-3.751999e+01	0	0
984844	2.205000e+00	-9.173057e+01	3.636479e+00	0	0
986797	2.205000e+00	-8.070420e+01	-5.045270e+00	0	0
988750	2.205000e+00	-1.005522e+02	1.650334e+01	0	0
990703	2.205000e+00	-1.071464e+02	5.985492e+01	0	0
992656	2.205000e+00	-9.762626e+01	2.273565e+01	0	0
994609	2.205000e+00	-8.275256e+01	5.746308e+00	0	0
996563	2.205000e+00	-8.285962e+01	-1.107019e+01	0	0
998516	2.205000e+00	-8.282071e+01	-5.723645e+01	0	0
1000469	2.205000e+00	-8.307849e+01	-3.922443e+01	0	0
1002422	2.205000e+00	-8.339273e+01	-2.392616e+01	0	0
1004375	2.205000e+00	-7.784560e+01	8.157064e+00	0	0
1006328	2.205000e+00	-8.135210e+01	1.098643e+00	0	0
1008281	2.205000e+00	-8.171769e+01	1.362140e+01	0	0
1010234	2.205000e+00	-8.205028e+01	6.395595e+01	0	0
1012188	2.205000e+00	-4.588032e+01	5.453844e+01	0	0
1014141	2.205000e+00	-1.420740e+01	-4.943966e+00	0	0
1016094	2.205000e+00	9.387055e+00	-4.986501e-01	0	0
1018047	2.205000e+00	1.389150e+01	-3.961998e+01	0	0
1020000	2.205000e+00	9.796079e+00	-8.016849e+01	0	0
1021953	2.205000e+00	8.008799e+00	-4.356347e+01	0	0
1023906	2.205000e+00	1.025704e+01	6.366849e+00	0	0
1025859	2.205000e+00	-1.103928e+00	3.137818e+00	0	0
1027813	2.205000e+00	9.997702e+00	-2.102626e+00	0	0
1029766	2.205000e+00	1.036226e+01	2.835725e+01	0	0
1031719	2.205000e+00	2.938701e+01	7.089110e+01	0	0
1033672	2.205000e+00	5.317117e+01	-1.185297e+01	0	0
1035625	2.205000e+00	7.302310e+01	7.460487e+00	0	0
1037578	2.205000e+00	8.692727e+01	-2.656552e+01	0	0
1039531	2.204717e+00	8.411095e+01	-7.683266e+01	0	0
1041484	2.204283e+00	8.517787e+01	-1.368785e+01	0	0
1043438	2.205000e+00	8.975496e+01	-1.223545e+01	0	0
1045391	2.204717e+00	7.456747e+01	-1.017628e+01	0	0
1047344	2.204000e+00	7.798225e+01	-1.491056e+01	0	0
1049297	2.204000e+00	1.057120e+02	9.477572e+00	0	0
1051250	2.204000e+00	1.207155e+02	5.727780e+01	0	0
1053203	2.204000e+00	1.436859e+02	7.294491e+00	0	0
1055156	2.204000e+00	1.431183e+02	-1.144215e+00	0	0
1057109	2.204000e+00	1.447895e+02	-1.913331e+01	0	0
1059063	2.204000e+00	1.430771e+02	-5.935639e+01	0	0
1061016	2.204000e+00	1.348025e+02	-2.970210e+01	0	0
1062969	2.204000e+00	1.134066e+02	-1.677597e+01	0	0
1064922	2.204000e+00	9.296448e+01	7.879815e+00	0	0
1066875	2.204000e+00	8.027194e+01	-5.425840e-01	0	0
1068828	2.204000e+00	8.398253e+01	1.984337e+01	0	0
1070781	2.204000e+00	7.683969e+01	6.196378e+01	0	0
1072734	2.204000e+00	7.329832e+01	2.008018e+01	0	0
1074688	2.204000e+00	6.173021e+01	4.715668e+00	0	0
1076641	2.204000e+00	5.192897e+01	-9.741790e+00	0	0
1078594	2.204000e+00	2.161899e+01	-5.771027e+01	0	0
1080547	2.204000e+00	-3.431000e+00	-5.508670e+01	0	0
1082500	2.204000e+00	-1.583442e+01	-3.139092e+01	0	0
1084453	2.204000e+00	-5.178863e+01	9.162218e+00	0	0
1086406	2.204000e+00	-7.890954e+01	1.539459e+00	0	0
1088359	2.204000e+00	-8.988427e+01	1.865180e+01	0	0
1090313	2.204000e+00	-9.654579e+01	7.228919e+01	0	0
1092266	2.204000e+00	-1.121239e+02	5.368154e+01	0	0
1094219	2.204000e+00	-1.082042e+02	-2.018425e+00	0	0
1096172	2.204000e+00	-1.048522e+02	3.226496e-01	0	0
1098125	2.204000e+00	-1.130070e+02	-4.051844e+01	0	0
1100078	2.204000e+00	-1.268832e+02	-7.388409e+01	0	0
1102031	2.204000e+00	-1.409011e+02	-4.071407e+01	0	0
1103984	2.204000e+00	-1.481217e+02	3.861154e+00	0	0
1105938	2.204000e+00	-1.566083e+02	6.578004e-01	0	0
1107891	2.204000e+00	-1.579337e+02	-3.751084e+00	0	0
1109844	2.204000e+00	-1.594562e+02	2.719416e+01	0	0
1111797	2.203714e+00	-1.658818e+02	6.835703e+01	0	0
1113750	2.203286e+00	-1.557572e+02	-4.358596e+00	0	0
1115703	2.204000e+00	-1.581540e+02	1.188648e+01	0	0
1117656	2.204000e+00	-1.603696e+02	-3.364466e+01	0	0
1119609	2.203714e+00	-1.761000e+02	-8.263131e+01	0	0
1121563	2.203000e+00	-1.834820e+02	-2.107543e+01	0	0
1123516	2.203000e+00	-1.784059e+02	6.708303e-02	0	0
1125469	2.203000e+00	-1.901890e+02	2.341144e+01	0	0
1127422	2.203000e+00	-1.905242e+02	4.357017e+01	0	0
1129375	2.203000e+00	-1.959386e+02	7.294638e+01	0	0
1131328	2.203000e+00	-1.943841e+02	9.867816e+01	0	0
1133281	2.203000e+00	-1.898710e+02	6.779949e+01	0	0
1135234	2.203000e+00	-1.693126e+02	-2.492085e+01	0	0
1137188	2.203000e+00	-1.812618e+02	-1.247178e+02	0	0
1139141	2.203000e+00	-1.959729e+02	-2.180448e+02	0	0
1141094	2.203000e+00	-1.993959e+02	-2.407319e+02	0	0
1143047	2.203000e+00	-2.040982e+02	-1.783818e+02	0	0
1145000	2.203000e+00	-1.984898e+02	-7.565969e+01	0	0
1146953	2.203000e+00	-2.168935e+02	2.058958e+01	0	0
1148906	2.203000e+00	-2.218710e+02	8.632721e+01	0	0
1150859	2.203000e+00	-2.098866e+02	7.783614e+01	0	0
1152813	2.203000e+00	-2.027407e+02	4.897088e+01	0	0
1154766	2.203000e+00	-1.950633e+02	3.387620e+01	0	0
1156719	2.203000e+00	-1.813955e+02	-2.456461e+00	0	0
1158672	2.203000e+00	-1.923367e+02	-4.702551e+01	0	0
1160625	2.203000e+00	-1.923965e+02	-3.981839e+01	0	0
1162578	2.203000e+00	-1.878628e+02	-1.520336e+01	0	0
1164531	2.203000e+00	-2.122874e+02	-8.443632e-01	0	0
1166484	2.203000e+00	-2.449913e+02	-3.342422e+00	0	0
1168438	2.203000e+00	-2.648702e+02	1.288222e+01	0	0
1170391	2.203000e+00	-2.687661e+02	6.724829e+01	0	0
1172344	2.203000e+00	-2.450494e+02	5.226645e+01	0	0
1174297	2.203000e+00	-1.834591e+02	6.879502e+00	0	0
1176250	2.203000e+00	-9.403612e+01	5.558717e+00	0	0
1178203	2.203000e+00	-1.494560e+01	-5.147175e+01	0	0
1180156	2.202711e+00	8.287336e+01	-6.454628e+01	0	0
1182109	2.202289e+00	1.720369e+02	-3.121142e+01	0	0
1184063	2.203000e+00	3.020922e+02	1.700066e+01	0	0
1186016	2.202710e+00	5.210593e+02	8.846141e+00	0	0
1187969	2.202290e+00	7.939569e+02	1.072998e+01	0	0
1189922	2.203000e+00	1.034046e+03	5.145178e+01	0	0
1191875	2.202710e+00	1.296238e+03	6.332404e+01	0	0
1193828	2.202000e+00	1.534147e+03	-1.661903e+01	0	0
1195781	2.202290e+00	1.725360e+03	1.632550e+00	0	0
1197734	2.202710e+00	1.801169e+03	-3.079457e+01	0	0
1199688	2.202000e+00	1.685140e+03	-8.330489e+01	0	0
1201641	2.202000e+00	1.505971e+03	-2.302526e+01	0	0
1203594	2.202000e+00	1.162146e+03	-9.678813e+00	0	0
1205547	2.202000e+00	9.121906e+02	-4.771177e+00	0	0
1207500	2.202000e+00	7.076060e+02	-7.523593e+00	0	0
1209453	2.202000e+00	5.350786e+02	1.892220e+01	0	0
1211406	2.202000e+00	3.270087e+02	6.121991e+01	0	0
1213359	2.202000e+00	7.264243e+00	7.393760e-01	0	0
1215313	2.202000e+00	-1.992009e+02	4.707758e+00	0	0
1217266	2.202000e+00	-2.997388e+02	-1.869144e+01	0	0
1219219	2.202000e+00	-3.563298e+02	-6.574850e+01	0	0
1221172	2.202000e+00	-3.644946e+02	-4.189569e+01	0	0
1223125	2.202000e+00	-3.357092e+02	-2.626300e+01	0	0
1225078	2.202000e+00	-3.035928e+02	5.985064e-01	0	0
1227031	2.202000e+00	-2.781311e+02	-7.015013e+00	0	0
1228984	2.202000e+00	-2.579759e+02	1.345165e+01	0	0
1230938	2.202000e+00	-2.112953e+02	6.055320e+01	0	0
1232891	2.202000e+00	-1.820434e+02	2.713193e+01	0	0
1234844	2.202000e+00	-1.512603e+02	2.041468e-01	0	0
1236797	2.202000e+00	-1.615713e+02	-8.440227e+00	0	0
1238750	2.202000e+00	-1.561068e+02	-5.107198e+01	0	0
1240703	2.202000e+00	-1.570556e+02	-5.232341e+01	0	0
1242656	2.202000e+00	-1.784987e+02	-2.657459e+01	0	0
1244609	2.202000e+00	-1.922802e+02	6.011321e+00	0	0
1246563	2.202000e+00	-1.901447e+02	-3.345735e+00	0	0
1248516	2.202000e+00	-1.862245e+02	1.572222e+01	0	0
1250469	2.202000e+00	-1.958059e+02	7.024126e+01	0	0
1252422	2.202000e+00	-1.871822e+02	4.187493e+01	0	0
1254375	2.202000e+00	-1.750714e+02	-1.359204e+00	0	0
1256328	2.202000e+00	-1.749844e+02	-1.065845e+01	0	0
1258281	2.202000e+00	-1.826735e+02	-6.121877e+01	0	0
1260234	2.202000e+00	-1.886459e+02	-6.884837e+01	0	0
1262188	2.202000e+00	-1.806913e+02	-4.371507e+01	0	0
1264141	2.202000e+00	-1.825752e+02	1.171150e+01	0	0
1266094	2.202000e+00	-1.869636e+02	5.953225e+00	0	0
1268047	2.202000e+00	-1.879410e+02	3.546279e+00	0	0
1270000	2.202000e+00	-1.736100e+02	3.827360e+01	0	0
1271953	2.201707e+00	-1.536176e+02	6.852883e+01	0	0
1273906	2.201000e+00	-1.437349e+02	-8.761233e+00	0	0
1275859	2.201293e+00	-1.328045e+02	1.089180e+01	0	0
1277813	2.201706e+00	-1.459684e+02	-2.099844e+01	0	0
1279766	2.201000e+00	-1.684247e+02	-7.870182e+01	0	0
1281719	2.201000e+00	-1.801529e+02	-2.412967e+01	0	0
1283672	2.201000e+00	-1.888856e+02	7.936187e-01	0	0
1285625	2.201000e+00	-2.093112e+02	7.928659e-01	0	0
1287578	2.201000e+00	-1.898690e+02	-4.844151e+00	0	0
1289531	2.201000e+00	-1.727279e+02	2.198214e+01	0	0
1291484	2.201000e+00	-1.578833e+02	5.702632e+01	0	0
1293438	2.201000e+00	-1.419628e+02	-8.836551e+00	0	0
1295391	2.201000e+00	-1.495340e+02	9.528936e+00	0	0
1297344	2.201000e+00	-1.488686e+02	-1.441510e+01	0	0
1299297	2.201000e+00	-1.271606e+02	-5.545491e+01	0	0
1301250	2.201000e+00	-1.350303e+02	-2.642360e+01	0	0
1303203	2.201000e+00	-1.428473e+02	-1.733796e+01	0	0
1305156	2.201000e+00	-1.392653e+02	7.560759e+00	0	0
1307109	2.201000e+00	-1.514700e+02	-8.046997e-01	0	0
1309063	2.201000e+00	-1.528762e+02	1.830870e+01	0	0
1311016	2.201000e+00	-1.598261e+02	5.970167e+01	0	0
1312969	2.201000e+00	-1.329367e+02	2.417967e+01	0	0
1314922	2.201000e+00	-1.103919e+02	2.141862e+00	0	0
1316875	2.201000e+00	-1.300935e+02	-7.533036e+00	0	0
1318828	2.201000e+00	-1.238256e+02	-4.863796e+01	0	0
1320781	2.201000e+00	-1.246729e+02	-4.911987e+01	0	0
1322734	2.201000e+00	-1.343347e+02	-2.344633e+01	0	0
1324688	2.201000e+00	-1.297502e+02	8.215061e+00	0	0
1326641	2.201000e+00	-1.383372e+02	1.123019e-02	0	0
1328594	2.201000e+00	-1.361444e+02	1.864868e+01	0	0
1330547	2.201000e+00	-1.263949e+02	7.157453e+01	0	0
1332500	2.201000e+00	-9.737522e+01	4.568504e+01	0	0
1334453	2.201000e+00	-9.479480e+01	3.306628e+00	0	0
1336406	2.201000e+00	-9.413137e+01	-7.824698e+00	0	0
1338359	2.201000e+00	-9.423705e+01	-5.933680e+01	0	0
1340313	2.201000e+00	-1.031264e+02	-6.115495e+01	0	0
1342266	2.201000e+00	-9.164904e+01	-3.651368e+01	0	0
1344219	2.201000e+00	-9.085362e+01	1.540976e+01	0	0
1346172	2.201000e+00	-8.421335e+01	8.849444e+00	0	0
1348125	2.201000e+00	-9.172156e+01	3.112893e+00	0	0
1350078	2.201000e+00	-9.681395e+01	3.397809e+01	0	0
1352031	2.200703e+00	-7.541334e+01	6.730119e+01	0	0
1353984	2.200000e+00	-7.170737e+01	-8.567981e+00	0	0
1355938	2.200298e+00	-5.454869e+01	1.071726e+01	0	0
1357891	2.201000e+00	-3.801572e+01	-2.066404e+01	0	0
1359844	2.201000e+00	-5.702090e+01	-8.162814e+01	0	0
1361797	2.201000e+00	-4.806604e+01	-3.115506e+01	0	0
1363750	2.201000e+00	-4.888417e+01	5.390752e+00	0	0
1365703	2.200702e+00	-7.341662e+01	3.121570e+00	0	0
1367656	2.200000e+00	-5.279232e+01	-2.765028e+00	0	0
1369609	2.200000e+00	-6.674156e+01	2.478738e+01	0	0
1371563	2.200000e+00	-7.415620e+01	6.479586e+01	0	0
1373516	2.200000e+00	-3.637749e+01	-1.792340e-01	0	0
1375469	2.200000e+00	-1.015054e+01	7.646365e+00	0	0
1377422	2.200000e+00	2.037766e+01	-1.728890e+01	0	0
1379375	2.200000e+00	1.160142e+01	-6.048089e+01	0	0
1381328	2.200000e+00	5.906831e+00	-2.903015e+01	0	0
1383281	2.200000e+00	-4.406353e+00	-1.981454e+01	0	0
1385234	2.200000e+00	-2.866363e-01	5.543205e+00	0	0
1387188	2.200000e+00	7.021693e+00	-2.733112e+00	0	0
1389141	2.200000e+00	1.713330e+00	1.739522e+01	0	0
1391094	2.200000e+00	9.684321e+00	5.988286e+01	0	0
1393047	2.200000e+00	3.880517e+01	2.491240e+01	0	0
1395000	2.200000e+00	5.449683e+01	1.629895e+00	0	0
1396953	2.200000e+00	7.035815e+01	-4.486142e+00	0	0
1398906	2.200000e+00	8.380173e+01	-4.137216e+01	0	0
1400859	2.200000e+00	8.977476e+01	-4.686611e+01	0	0
1402813	2.200000e+00	7.929823e+01	-1.786396e+01	0	0
1404766	2.200000e+00	7.194035e+01	5.932343e+00	0	0
1406719	2.200000e+00	8.602845e+01	-1.035005e+00	0	0
1408672	2.200000e+00	7.872152e+01	1.493303e+01	0	0
1410625	2.200000e+00	1.290300e+02	6.235036e+01	0	0
1412578	2.200000e+00	1.323555e+02	3.997855e+01	0	0
1414531	2.200000e+00	1.227624e+02	1.711692e-01	0	0
1416484	2.200000e+00	1.530167e+02	-8.409170e+00	0	0
1418438	2.200000e+00	1.757527e+02	-5.389175e+01	0	0
1420391	2.200000e+00	1.890514e+02	-5.684843e+01	0	0
1422344	2.200000e+00	2.020028e+02	-3.257502e+01	0	0
1424297	2.200000e+00	2.150669e+02	1.020811e+01	0	0
1426250	2.200000e+00	2.172919e+02	3.755924e+00	0	0
1428203	2.200000e+00	2.156162e+02	9.665749e+00	0	0
1430156	2.200000e+00	2.190965e+02	5.262099e+01	0	0
1432109	2.200000e+00	2.486194e+02	5.852728e+01	0	0
1434063	2.200000e+00	2.670576e+02	-7.406629e+00	0	0
1436016	2.200000e+00	2.733752e+02	8.972788e+00	0	0
1437969	2.200000e+00	2.714063e+02	-2.066209e+01	0	0
1439922	2.200000e+00	2.760396e+02	-8.158427e+01	0	0
1441875	2.200000e+00	2.867770e+02	-3.734274e+01	0	0
1443828	2.200000e+00	2.673358e+02	6.305384e+00	0	0
1445781	2.200000e+00	2.771942e+02	2.628554e+00	0	0
1447734	2.200000e+00	2.928334e+02	-2.908686e+00	0	0
1449688	2.200000e+00	2.896919e+02	2.529797e+01	0	0
1451641	2.200000e+00	3.076588e+02	5.994866e+01	0	0
1453594	2.200000e+00	3.178039e+02	-6.802625e+00	0	0
1455547	2.200000e+00	3.585185e+02	1.068831e+01	0	0
1457500	2.200000e+00	3.568244e+02	-1.585571e+01	0	0
1459453	2.200000e+00	3.219688e+02	-6.159029e+01	0	0
1461406	2.200000e+00	3.308538e+02	-2.852025e+01	0	0
1463359	2.200000e+00	3.027138e+02	-8.521592e+00	0	0
1465313	2.200000e+00	2.779748e+02	4.502522e+00	0	0
1467266	2.200000e+00	2.637108e+02	-1.575210e+00	0	0
1469219	2.200000e+00	2.395718e+02	1.649359e+01	0	0
1471172	2.200000e+00	2.237638e+02	6.506042e+01	0	0
1473125	2.200000e+00	2.052737e+02	3.641344e+01	0	0
1475078	2.200000e+00	2.039829e+02	-4.708494e-01	0	0
1477031	2.200000e+00	1.907173e+02	-7.077993e+00	0	0
1478984	2.200000e+00	1.497092e+02	-4.881160e+01	0	0
1480938	2.199697e+00	1.273865e+02	-4.968476e+01	0	0
1482891	2.199303e+00	9.269455e+01	-2.080985e+01	0	0
1484844	2.200000e+00	6.308308e+01	5.121072e+00	0	0
1486797	2.200000e+00	2.940624e+01	-2.869263e+00	0	0
1488750	2.200000e+00	-1.849883e+01	1.534233e+01	0	0
1490703	2.199697e+00	-2.558012e+01	6.868201e+01	0	0
1492656	2.199000e+00	-3.878420e+01	4.322852e+01	0	0
1494609	2.199000e+00	-4.440427e+01	-2.114725e+00	0	0
1496563	2.199000e+00	-6.845065e+01	-9.498852e+00	0	0
1498516	2.199000e+00	-9.224759e+01	-5.992213e+01	0	0
1500469	2.199000e+00	-1.344288e+02	-6.346497e+01	0	0
1502422	2.199000e+00	-1.315249e+02	-2.842214e+01	0	0
1504375	2.199000e+00	-1.383242e+02	5.703521e+00	0	0
1506328	2.199304e+00	-1.692807e+02	-1.573811e+00	0	0
1508281	2.199696e+00	-1.862559e+02	9.910130e+00	0	0
1510234	2.199000e+00	-1.761319e+02	6.345006e+01	0	0
1512188	2.199000e+00	-1.666921e+02	6.058302e+01	0	0
1514141	2.199000e+00	-1.972321e+02	-8.529682e+00	0	0
1516094	2.199000e+00	-1.828916e+02	9.541510e+00	0	0
1518047	2.199000e+00	-2.196163e+02	-2.137159e+01	0	0
1520000	2.199000e+00	-2.351848e+02	-8.061637e+01	0	0
1521953	2.199000e+00	-2.403958e+02	-2.959487e+01	0	0
1523906	2.199000e+00	-2.410354e+02	5.575297e+00	0	0
1525859	2.199000e+00	-2.316070e+02	2.707228e+00	0	0
1527813	2.199306e+00	-2.534311e+02	-3.924004e+00	0	0
1529766	2.199694e+00	-2.467281e+02	2.761953e+01	0	0
1531719	2.199000e+00	-2.352622e+02	6.491928e+01	0	0
1533672	2.199000e+00	-2.462873e+02	-9.225976e+00	0	0
1535625	2.199000e+00	-2.611041e+02	9.739612e+00	0	0
1537578	2.199000e+00	-2.405789e+02	-2.095972e+01	0	0
1539531	2.199000e+00	-2.459362e+02	-6.473901e+01	0	0
1541484	2.199000e+00	-2.576626e+02	-1.591337e+01	0	0
1543438	2.199000e+00	-2.761027e+02	-5.887560e+00	0	0
1545391	2.199000e+00	-3.054857e+02	2.747104e+00	0	0
1547344	2.199000e+00	-2.829413e+02	-4.081288e+00	0	0
1549297	2.199000e+00	-3.035106e+02	1.836560e+01	0	0
1551250	2.199000e+00	-2.800721e+02	5.583298e+01	0	0
1553203	2.199000e+00	-2.707666e+02	9.944087e+00	0	0
1555156	2.199000e+00	-2.761188e+02	1.478589e+00	0	0
1557109	2.199000e+00	-2.821174e+02	-1.040030e+01	0	0
1559063	2.199000e+00	-2.870821e+02	-4.942555e+01	0	0
1561016	2.199000e+00	-2.808332e+02	-5.443390e+01	0	0
1562969	2.199000e+00	-2.821187e+02	-2.965715e+01	0	0
1564922	2.199000e+00	-2.915949e+02	4.553398e+00	0	0
1566875	2.199000e+00	-3.128294e+02	-5.065465e+00	0	0
1568828	2.199000e+00	-3.077218e+02	1.467165e+01	0	0
1570781	2.199000e+00	-3.167382e+02	6.131254e+01	0	0
1572734	2.199000e+00	-3.145563e+02	3.005737e+01	0	0
1574688	2.199000e+00	-3.007021e+02	-8.093157e-01	0	0
1576641	2.199000e+00	-2.852677e+02	-1.609687e+01	0	0
1578594	2.199000e+00	-3.081256e+02	-6.264126e+01	0	0
1580547	2.199000e+00	-3.057001e+02	-5.070499e+01	0	0
1582500	2.199000e+00	-3.010293e+02	-3.358098e+01	0	0
1584453	2.199000e+00	-3.242031e+02	4.821250e+00	0	0
1586406	2.199000e+00	-3.163593e+02	-5.028003e+00	0	0
1588359	2.199000e+00	-3.034454e+02	1.260477e+01	0	0
1590313	2.199000e+00	-3.121103e+02	6.852385e+01	0	0
1592266	2.199000e+00	-2.773977e+02	5.091314e+01	0	0
1594219	2.199000e+00	-2.702368e+02	-8.690988e+00	0	0
1596172	2.199000e+00	-2.746720e+02	7.371855e+00	0	0
1598125	2.199000e+00	-2.998428e+02	-2.206705e+01	0	0
1600078	2.199000e+00	-2.920103e+02	-7.703864e+01	0	0
1602031	2.199000e+00	-2.817141e+02	-2.842640e+01	0	0
1603984	2.199000e+00	-3.060681e+02	2.976890e+00	0	0
1605938	2.199000e+00	-3.045860e+02	4.176820e-01	0	0
1607891	2.199000e+00	-3.088488e+02	-5.545004e+00	0	0
1609844	2.199000e+00	-3.137661e+02	2.963013e+01	0	0
1611797	2.199000e+00	-3.208753e+02	6.811723e+01	0	0
1613750	2.199000e+00	-3.000785e+02	-5.980740e+00	0	0
1615703	2.199000e+00	-2.914666e+02	1.078601e+01	0	0
1617656	2.199000e+00	-2.890677e+02	-2.290392e+01	0	0
1619609	2.199000e+00	-2.862667e+02	-6.373905e+01	0	0
1621563	2.199000e+00	-2.974867e+02	-7.251950e+00	0	0
1623516	2.199311e+00	-2.986436e+02	-4.643350e+00	0	0
1625469	2.199689e+00	-2.945728e+02	-6.780633e+00	0	0
1627422	2.199000e+00	-2.988777e+02	-1.250532e+01	0	0
1629375	2.199000e+00	-2.810504e+02	1.103736e+01	0	0
1631328	2.199000e+00	-2.819104e+02	5.962106e+01	0	0
1633281	2.199311e+00	-2.718568e+02	2.190981e+01	0	0
1635234	2.199689e+00	-2.727347e+02	-1.701631e+00	0	0
1637188	2.199312e+00	-2.857101e+02	-1.495173e+01	0	0
1639141	2.200000e+00	-2.583710e+02	-5.789006e+01	0	0
1641094	2.200000e+00	-2.732578e+02	-5.312651e+01	0	0
1643047	2.200000e+00	-2.904353e+02	-3.157166e+01	0	0
1645000	2.200000e+00	-2.847714e+02	1.678970e+00	0	0
1646953	2.200000e+00	-2.810523e+02	-5.796789e+00	0	0
1648906	2.200000e+00	-2.791653e+02	1.472468e+01	0	0
1650859	2.200000e+00	-2.839438e+02	6.403108e+01	0	0
1652813	2.200000e+00	-2.713885e+02	3.631394e+01	0	0
1654766	2.200000e+00	-2.704136e+02	-3.133779e-01	0	0
1656719	2.200000e+00	-2.690438e+02	-1.063313e+01	0	0
1658672	2.200000e+00	-2.796635e+02	-5.850015e+01	0	0
1660625	2.200000e+00	-2.883369e+02	-5.806750e+01	0	0
1662578	2.200000e+00	-2.898396e+02	-2.913065e+01	0	0
1664531	2.200000e+00	-2.979206e+02	5.444505e+00	0	0
1666484	2.200000e+00	-2.915952e+02	-2.160634e+00	0	0
1668438	2.200000e+00	-2.808603e+02	1.899270e+01	0	0
1670391	2.200000e+00	-2.902018e+02	7.978924e+01	0	0
1672344	2.200000e+00	-2.915219e+02	5.984986e+01	0	0
1674297	2.200000e+00	-2.803311e+02	-1.854641e+00	0	0
1676250	2.200000e+00	-2.738774e+02	1.120108e+01	0	0
1678203	2.200000e+00	-2.767187e+02	-2.011574e+01	0	0
1680156	2.200000e+00	-2.914936e+02	-7.856533e+01	0	0
1682109	2.200000e+00	-2.968761e+02	-3.214330e+01	0	0
1684063	2.200000e+00	-2.901530e+02	2.189646e+00	0	0
1686016	2.200000e+00	-2.951941e+02	-2.686729e+00	0	0
1687969	2.200000e+00	-3.039778e+02	-9.399154e+00	0	0
1689922	2.200000e+00	-3.262226e+02	2.507790e+01	0	0
1691875	2.200000e+00	-2.911426e+02	6.279845e+01	0	0
1693828	2.200000e+00	-2.582649e+02	-1.256194e+01	0	0
1695781	2.200000e+00	-2.740618e+02	1.078144e+01	0	0
1697734	2.200000e+00	-2.667348e+02	-1.992663e+01	0	0
1699688	2.200000e+00	-2.691053e+02	-7.306343e+01	0	0
1701641	2.200000e+00	-2.733614e+02	-1.479387e+01	0	0
1703594	2.200000e+00	-2.881875e+02	5.084411e+00	0	0
1705547	2.200000e+00	-2.972592e+02	2.609883e+01	0	0
1707500	2.200000e+00	-2.924879e+02	4.661904e+01	0	0
1709453	2.200000e+00	-3.023587e+02	7.211776e+01	0	0
1711406	2.200000e+00	-3.005488e+02	9.513056e+01	0	0
1713359	2.200000e+00	-2.900140e+02	6.052331e+01	0	0
1715313	2.200000e+00	-2.935009e+02	-3.274959e+01	0	0
1717266	2.200000e+00	-2.636893e+02	-1.321500e+02	0	0
1719219	2.200316e+00	-2.613075e+02	-2.237353e+02	0	0
1721172	2.201000e+00	-2.782406e+02	-2.432969e+02	0	0
1723125	2.200684e+00	-2.952912e+02	-1.734647e+02	0	0
1725078	2.200000e+00	-2.954563e+02	-6.036167e+01	0	0
1727031	2.200316e+00	-3.004800e+02	3.883087e+01	0	0
1728984	2.201000e+00	-2.859374e+02	9.852317e+01	0	0
1730938	2.200683e+00	-2.626210e+02	8.631333e+01	0	0
1732891	2.200317e+00	-2.441859e+02	4.663195e+01	0	0
1734844	2.201000e+00	-2.014855e+02	3.275461e+01	0	0
1736797	2.201000e+00	-1.878797e+02	-7.550283e+00	0	0
1738750	2.201000e+00	-1.999977e+02	-5.294580e+01	0	0
1740703	2.201000e+00	-1.903879e+02	-3.262160e+01	0	0
1742656	2.201000e+00	-2.011645e+02	-5.211564e+00	0	0
1744609	2.201000e+00	-2.036189e+02	7.816394e+00	0	0
1746563	2.201000e+00	-2.038639e+02	-1.818232e+00	0	0
1748516	2.201000e+00	-2.251570e+02	1.054003e+01	0	0
1750469	2.201000e+00	-2.017883e+02	6.740249e+01	0	0
1752422	2.201000e+00	-1.915667e+02	6.556640e+01	0	0
1754375	2.201000e+00	-1.507798e+02	-2.736256e+00	0	0
1756328	2.201000e+00	-1.353063e+02	1.333827e+01	0	0
1758281	2.201000e+00	-1.349001e+02	-2.103630e+01	0	0
1760234	2.201000e+00	-1.317977e+02	-7.956998e+01	0	0
1762188	2.201000e+00	-1.201153e+02	-3.624142e+01	0	0
1764141	2.201000e+00	-1.287499e+02	1.134009e+01	0	0
1766094	2.201000e+00	-1.405615e+02	3.713484e+00	0	0
1768047	2.201000e+00	-1.409441e+02	-5.837041e+00	0	0
1770000	2.201000e+00	-1.231091e+02	2.626349e+01	0	0
1771953	2.201000e+00	-8.357403e+01	6.272438e+01	0	0
1773906	2.201000e+00	-6.860738e+01	-1.618698e+01	0	0
1775859	2.201000e+00	-7.287380e+01	2.405613e+00	0	0
1777813	2.201000e+00	-8.418683e+01	-3.334658e+01	0	0
1779766	2.201319e+00	-8.350639e+01	-7.522363e+01	0	0
1781719	2.202000e+00	-8.573143e+01	-1.602633e+01	0	0
1783672	2.202000e+00	-5.794103e+01	-1.743807e+01	0	0
1785625	2.202000e+00	-8.432917e+01	-1.612845e+01	0	0
1787578	2.202000e+00	-1.024198e+02	-1.954800e+01	0	0
1789531	2.202000e+00	-1.069155e+02	7.894369e+00	0	0
1791484	2.202000e+00	-1.236180e+02	4.066584e+01	0	0
1793438	2.202000e+00	-1.193899e+02	-5.534829e+00	0	0
1795391	2.202000e+00	-1.300693e+02	3.809708e-01	0	0
1797344	2.202000e+00	-1.285046e+02	-1.481303e+01	0	0
1799297	2.202000e+00	-1.349307e+02	-5.376173e+01	0	0
1801250	2.202000e+00	-1.688573e+02	-4.175460e+01	0	0
1803203	2.202000e+00	-2.268885e+02	-2.129015e+01	0	0
1805156	2.202000e+00	-2.624239e+02	4.631616e+00	0	0
1807109	2.202000e+00	-2.822338e+02	-2.203817e+00	0	0
1809063	2.202000e+00	-3.012893e+02	1.466339e+01	0	0
1811016	2.202000e+00	-3.004077e+02	5.600532e+01	0	0
1812969	2.202000e+00	-2.916761e+02	2.903059e+01	0	0
1814922	2.202321e+00	-3.008564e+02	-1.852061e+00	0	0
1816875	2.203000e+00	-3.203862e+02	-1.419428e+01	0	0
1818828	2.203000e+00	-3.198021e+02	-5.444797e+01	0	0
1820781	2.203000e+00	-3.175913e+02	-4.681160e+01	0	0
1822734	2.203000e+00	-3.251605e+02	-3.020678e+01	0	0
1824688	2.203000e+00	-3.425735e+02	6.749219e+00	0	0
1826641	2.203000e+00	-3.315506e+02	-4.120162e+00	0	0
1828594	2.203000e+00	-3.534744e+02	1.845529e+01	0	0
1830547	2.203000e+00	-3.579717e+02	7.037058e+01	0	0
1832500	2.203000e+00	-3.360877e+02	3.837999e+01	0	0
1834453	2.203000e+00	-3.339483e+02	-5.117158e+00	0	0
1836406	2.203000e+00	-3.363741e+02	3.057761e+00	0	0
1838359	2.203000e+00	-3.521321e+02	-3.069059e+01	0	0
1840313	2.203000e+00	-3.665061e+02	-7.433342e+01	0	0
1842266	2.203322e+00	-3.704437e+02	-3.059639e+01	0	0
1844219	2.204000e+00	-3.601400e+02	4.142586e+00	0	0
1846172	2.204000e+00	-3.680278e+02	3.662687e+00	0	0
1848125	2.204000e+00	-3.859579e+02	-2.785667e+00	0	0
1850078	2.204000e+00	-3.903822e+02	3.315098e+01	0	0
1852031	2.204000e+00	-3.858240e+02	6.816920e+01	0	0
1853984	2.204000e+00	-3.733867e+02	-1.226774e+01	0	0
1855938	2.204000e+00	-3.585219e+02	7.029932e+00	0	0
1857891	2.204000e+00	-3.583258e+02	-2.931957e+01	0	0
1859844	2.204000e+00	-3.640757e+02	-6.927426e+01	0	0
1861797	2.204000e+00	-3.680822e+02	-6.759499e+00	0	0
1863750	2.204000e+00	-3.687263e+02	-1.140186e+01	0	0
1865703	2.204000e+00	-3.905521e+02	-8.165333e+00	0	0
1867656	2.204000e+00	-3.993789e+02	-1.131495e+01	0	0
1869609	2.204000e+00	-3.912616e+02	1.727354e+01	0	0
1871563	2.204000e+00	-3.783692e+02	5.729189e+01	0	0
1873516	2.204324e+00	-3.604999e+02	1.074576e+01	0	0
1875469	2.205000e+00	-3.590274e+02	3.094553e+00	0	0
1877422	2.205000e+00	-3.586882e+02	-1.461023e+01	0	0
1879375	2.205000e+00	-3.375037e+02	-5.467502e+01	0	0
1881328	2.205000e+00	-3.588508e+02	-3.477440e+01	0	0
1883281	2.205000e+00	-3.504531e+02	-2.104623e+01	0	0
1885234	2.205000e+00	-3.456773e+02	2.548152e+00	0	0
1887188	2.205000e+00	-3.726477e+02	-5.612324e+00	0	0
1889141	2.205000e+00	-3.973468e+02	1.423004e+01	0	0
1891094	2.205000e+00	-4.312202e+02	5.713269e+01	0	0
1893047	2.205000e+00	-4.205330e+02	2.588672e+01	0	0
1895000	2.205000e+00	-3.921868e+02	-9.017494e-01	0	0
1896953	2.205000e+00	-3.664815e+02	-1.646953e+01	0	0
1898906	2.205000e+00	-3.383799e+02	-5.695867e+01	0	0
1900859	2.205325e+00	-2.577608e+02	-4.523570e+01	0	0
1902813	2.206000e+00	-1.461228e+02	-3.129821e+01	0	0
1904766	2.206000e+00	-2.008467e+01	5.432454e+00	0	0
1906719	2.206000e+00	1.365316e+02	-5.594079e+00	0	0
1908672	2.206000e+00	3.452801e+02	1.829947e+01	0	0
1910625	2.206000e+00	5.768132e+02	7.075671e+01	0	0
1912578	2.206000e+00	8.140388e+02	3.671949e+01	0	0
1914531	2.206000e+00	1.064865e+03	-3.788947e+00	0	0
1916484	2.206000e+00	1.317384e+03	-1.113213e+00	0	0
1918438	2.206327e+00	1.539925e+03	-3.829772e+01	0	0
1920391	2.207000e+00	1.634815e+03	-7.723342e+01	0	0
1922344	2.207000e+00	1.600952e+03	-4.068236e+01	0	0
1924297	2.207000e+00	1.439749e+03	9.950565e+00	0	0
1926250	2.207000e+00	1.097776e+03	7.714592e+00	0	0
1928203	2.207000e+00	8.476641e+02	3.327226e+00	0	0
1930156	2.207000e+00	6.879120e+02	4.012116e+01	0	0
1932109	2.207000e+00	4.810560e+02	7.474157e+01	0	0
1934063	2.207000e+00	2.941341e+02	-5.727191e+00	0	0
1936016	2.207000e+00	5.835302e+01	1.142013e+01	0	0
1937969	2.207000e+00	-1.339811e+02	-2.362025e+01	0	0
1939922	2.207328e+00	-2.582525e+02	-7.199736e+01	0	0
1941875	2.208000e+00	-3.514141e+02	-1.949035e+01	0	0
1943828	2.208000e+00	-4.457738e+02	-9.079030e+00	0	0
1945781	2.208000e+00	-4.858515e+02	-9.911538e+00	0	0
1947734	2.208000e+00	-4.926915e+02	-1.427861e+01	0	0
1949688	2.208000e+00	-4.682989e+02	1.766416e+01	0	0
1951641	2.208000e+00	-4.528428e+02	5.503506e+01	0	0
1953594	2.208000e+00	-4.237331e+02	1.069529e+00	0	0
1955547	2.208000e+00	-3.636927e+02	7.070313e+00	0	0
1957500	2.208000e+00	-3.324366e+02	-5.945061e+00	0	0
1959453	2.208329e+00	-3.224309e+02	-4.414893e+01	0	0
1961406	2.209000e+00	-3.153435e+02	-4.068739e+01	0	0
1963359	2.209000e+00	-3.120760e+02	-2.089485e+01	0	0
1965313	2.209000e+00	-3.183379e+02	1.224780e+01	0	0
1967266	2.209000e+00	-3.107746e+02	-5.316169e-01	0	0
1969219	2.209000e+00	-3.167605e+02	1.830313e+01	0	0
1971172	2.209000e+00	-3.090238e+02	5.493651e+01	0	0
1973125	2.209000e+00	-3.138667e+02	2.102269e+01	0	0
1975078	2.209000e+00	-3.091553e+02	3.960820e+00	0	0
1977031	2.209329e+00	-3.005506e+02	-1.182301e+01	0	0
1978984	2.210000e+00	-2.916885e+02	-5.430667e+01	0	0
1980938	2.210000e+00	-3.018574e+02	-4.049262e+01	0	0
1982891	2.210000e+00	-3.035870e+02	-1.689238e+01	0	0
1984844	2.210000e+00	-2.919161e+02	8.640048e+00	0	0
1986797	2.210000e+00	-2.898462e+02	1.368127e+00	0	0
1988750	2.210000e+00	-3.052185e+02	1.631895e+01	0	0
1990703	2.210330e+00	-2.970040e+02	6.417480e+01	0	0
1992656	2.211000e+00	-2.828829e+02	4.679137e+01	0	0
1994609	2.211000e+00	-2.741081e+02	-1.775405e+00	0	0
1996563	2.211000e+00	-2.632213e+02	-4.498930e+00	0	0
1998516	2.211000e+00	-2.689075e+02	-5.013547e+01	0	0
2000469	2.211000e+00	-2.843911e+02	-6.503891e+01	0	0
2002422	2.211000e+00	-2.853066e+02	-2.516139e+01	0	0
2004375	2.211000e+00	-2.812985e+02	4.043690e+00	0	0
2006328	2.211331e+00	-2.781675e+02	5.236286e-01	0	0
2008281	2.212000e+00	-2.822766e+02	-1.384101e+00	0	0
2010234	2.212000e+00	-2.674210e+02	3.768290e+01	0	0
2012188	2.212000e+00	-2.732247e+02	5.793121e+01	0	0
2014141	2.212000e+00	-2.714283e+02	-1.357507e+01	0	0
2016094	2.212000e+00	-2.423113e+02	5.397057e+00	0	0
2018047	2.212000e+00	-2.312076e+02	-2.767390e+01	0	0
2020000	2.212000e+00	-2.402205e+02	-7.925542e+01	0	0
2021953	2.212332e+00	-2.429394e+02	-2.946653e+01	0	0
2023906	2.213000e+00	-2.432877e+02	-3.963771e-01	0	0
2025859	2.213000e+00	-2.602225e+02	2.651855e-01	0	0
2027813	2.213000e+00	-2.548244e+02	-4.474068e+00	0	0
2029766	2.213000e+00	-2.539750e+02	2.444151e+01	0	0
2031719	2.213000e+00	-2.327991e+02	5.106838e+01	0	0
2033672	2.213000e+00	-2.216597e+02	-7.351281e+00	0	0
2035625	2.213000e+00	-2.144726e+02	1.114110e+01	0	0
2037578	2.213333e+00	-2.162825e+02	-1.508547e+01	0	0
2039531	2.214000e+00	-2.091554e+02	-5.291328e+01	0	0
2041484	2.214000e+00	-2.101991e+02	-2.287447e+01	0	0
2043438	2.214000e+00	-2.049877e+02	-9.120616e+00	0	0
2045391	2.214000e+00	-2.246576e+02	5.085299e+00	0	0
2047344	2.214000e+00	-2.452127e+02	-1.023132e+00	0	0
2049297	2.214000e+00	-2.168057e+02	1.852609e+01	0	0
2051250	2.214334e+00	-2.090726e+02	5.819024e+01	0	0
2053203	2.215000e+00	-1.976318e+02	2.554291e+01	0	0
2055156	2.215000e+00	-1.850847e+02	1.180364e+00	0	0
2057109	2.215000e+00	-1.760039e+02	-1.062049e+01	0	0
2059063	2.215000e+00	-1.698910e+02	-5.049551e+01	0	0
2061016	2.215000e+00	-1.817100e+02	-4.493628e+01	0	0
2062969	2.215334e+00	-1.721335e+02	-1.992612e+01	0	0
2064922	2.216000e+00	-1.762861e+02	8.543497e+00	0	0
2066875	2.216000e+00	-1.740841e+02	-1.259013e+00	0	0
2068828	2.216000e+00	-1.635187e+02	2.138723e+01	0	0
2070781	2.216000e+00	-1.632869e+02	6.205016e+01	0	0
2072734	2.216000e+00	-1.390170e+02	2.520446e+01	0	0
2074688	2.216000e+00	-1.206291e+02	2.903840e+00	0	0
2076641	2.216000e+00	-1.284300e+02	-8.256546e+00	0	0
2078594	2.216335e+00	-1.109960e+02	-4.448520e+01	0	0
2080547	2.217000e+00	-1.052437e+02	-5.848165e+01	0	0
2082500	2.217000e+00	-1.103106e+02	-4.062321e+01	0	0
2084453	2.217000e+00	-1.194484e+02	1.186178e+01	0	0
2086406	2.217000e+00	-1.340174e+02	2.733298e+00	0	0
2088359	2.217335e+00	-1.187355e+02	2.854536e+00	0	0
2090313	2.218000e+00	-9.913534e+01	3.998228e+01	0	0
2092266	2.218000e+00	-1.001736e+02	5.516682e+01	0	0
2094219	2.218000e+00	-7.837081e+01	-7.544827e+00	0	0
2096172	2.218000e+00	-7.508223e+01	1.031128e+01	0	0
2098125	2.218000e+00	-7.144751e+01	-2.068700e+01	0	0
2100078	2.218336e+00	-5.390705e+01	-6.941415e+01	0	0
2102031	2.219000e+00	-5.906362e+01	-2.288683e+01	0	0
2103984	2.219000e+00	-4.497172e+01	4.726240e+00	0	0
2105938	2.219000e+00	-3.545724e+01	3.339198e+00	0	0
2107891	2.219000e+00	-3.424484e+01	-2.888638e+00	0	0
2109844	2.219000e+00	-3.312876e+01	2.595209e+01	0	0
2111797	2.219337e+00	-1.911013e+01	5.142990e+01	0	0
2113750	2.220000e+00	2.847774e-01	-7.735465e+00	0	0
2115703	2.220000e+00	2.377575e+01	9.995245e+00	0	0
2117656	2.220000e+00	1.869214e+01	-1.737521e+01	0	0
2119609	2.220000e+00	3.160371e+01	-5.051640e+01	0	0
2121563	2.220000e+00	3.256029e+01	-1.255416e+01	0	0
2123516	2.220338e+00	3.385942e+01	-5.928101e+00	0	0
2125469	2.221000e+00	3.720683e+01	4.397848e+00	0	0
2127422	2.221000e+00	2.851654e+01	-1.651817e+00	0	0
2129375	2.221000e+00	4.964174e+01	1.872271e+01	0	0
2131328	2.221000e+00	6.879717e+01	6.052994e+01	0	0
2133281	2.221338e+00	7.929808e+01	2.768010e+01	0	0
2135234	2.222000e+00	1.126742e+02	2.531413e+00	0	0
2137188	2.222000e+00	1.211426e+02	-1.310049e+01	0	0
2139141	2.222000e+00	1.244727e+02	-5.415974e+01	0	0
2141094	2.222000e+00	1.303297e+02	-3.951870e+01	0	0
2143047	2.222000e+00	1.464185e+02	-1.878437e+01	0	0
2145000	2.222339e+00	1.535547e+02	6.445584e+00	0	0
2146953	2.223000e+00	1.448389e+02	-2.002265e+00	0	0
2148906	2.223000e+00	1.609675e+02	1.591296e+01	0	0
2150859	2.223000e+00	1.855220e+02	6.127804e+01	0	0
2152813	2.223000e+00	1.904759e+02	3.410254e+01	0	0
2154766	2.223339e+00	1.921028e+02	-3.768537e+00	0	0
2156719	2.224000e+00	2.194790e+02	-8.260352e+00	0	0
2158672	2.224000e+00	2.291518e+02	-4.836368e+01	0	0
2160625	2.224000e+00	2.428718e+02	-5.915736e+01	0	0
2162578	2.224000e+00	2.489157e+02	-3.090652e+01	0	0
2164531	2.224000e+00	2.409906e+02	1.053298e+01	0	0
2166484	2.224340e+00	2.526347e+02	3.893263e+00	0	0
2168438	2.225000e+00	2.534451e+02	1.374319e+01	0	0
2170391	2.225000e+00	2.687934e+02	5.919085e+01	0	0
2172344	2.225000e+00	2.783989e+02	5.402357e+01	0	0
2174297	2.225000e+00	2.864876e+02	-7.700915e+00	0	0
2176250	2.225340e+00	3.031778e+02	9.809194e+00	0	0
2178203	2.226000e+00	2.935565e+02	-2.196863e+01	0	0
2180156	2.226000e+00	2.920175e+02	-7.541770e+01	0	0
2182109	2.226000e+00	2.714760e+02	-2.913485e+01	0	0
2184063	2.226341e+00	2.534024e+02	5.021698e+00	0	0
2186016	2.227000e+00	2.348983e+02	1.713189e+00	0	0
2187969	2.227000e+00	2.226501e+02	-4.847919e+00	0	0
2189922	2.227000e+00	2.087489e+02	2.585430e+01	0	0
2191875	2.227000e+00	1.973234e+02	5.249544e+01	0	0
2193828	2.227000e+00	2.038605e+02	-9.125718e+00	0	0
2195781	2.227341e+00	1.922603e+02	8.100300e+00	0	0
2197734	2.228000e+00	1.620930e+02	-1.927883e+01	0	0
2199688	2.228000e+00	1.465141e+02	-5.635285e+01	0	0
2201641	2.228000e+00	1.165495e+02	-2.467165e+01	0	0
2203594	2.228000e+00	7.116980e+01	-9.952518e+00	0	0
2205547	2.228342e+00	4.922888e+01	4.955094e+00	0	0
2207500	2.229000e+00	2.354397e+01	-3.242310e+00	0	0
2209453	2.229000e+00	-1.086417e+01	2.187967e+01	0	0
2211406	2.229000e+00	-1.511035e+01	4.650217e+01	0	0
2213359	2.229000e+00	-3.559592e+01	-3.769967e-01	0	0
2215313	2.229343e+00	-4.642541e+01	5.920652e+00	0	0
2217266	2.230000e+00	-4.737870e+01	-1.108126e+01	0	0
2219219	2.230000e+00	-6.540259e+01	-4.944845e+01	0	0
2221172	2.230000e+00	-7.402079e+01	-4.577294e+01	0	0
2223125	2.230343e+00	-1.033499e+02	-1.814539e+01	0	0
2225078	2.231000e+00	-1.364569e+02	5.804644e+00	0	0
2227031	2.231000e+00	-1.519155e+02	-1.797137e+00	0	0
2228984	2.231000e+00	-1.793860e+02	1.648506e+01	0	0
2230938	2.231000e+00	-1.893708e+02	6.309609e+01	0	0
2232891	2.231343e+00	-1.836850e+02	3.896188e+01	0	0
2234844	2.232000e+00	-1.930394e+02	9.383722e-01	0	0
2236797	2.232000e+00	-1.849165e+02	-1.075321e+01	0	0
2238750	2.232000e+00	-1.983362e+02	-5.627744e+01	0	0
2240703	2.232344e+00	-2.040298e+02	-6.073656e+01	0	0
2242656	2.233000e+00	-1.929411e+02	-3.456407e+01	0	0
2244609	2.233000e+00	-1.872875e+02	9.432165e+00	0	0
2246563	2.233000e+00	-1.923144e+02	1.220831e+00	0	0
2248516	2.233000e+00	-2.033772e+02	6.589000e+00	0	0
2250469	2.233344e+00	-2.031687e+02	5.302743e+01	0	0
2252422	2.234000e+00	-2.047678e+02	5.986757e+01	0	0
2254375	2.234000e+00	-1.944704e+02	-8.320674e+00	0	0
2256328	2.234000e+00	-2.042912e+02	1.103840e+01	0	0
2258281	2.234345e+00	-2.080748e+02	-2.449398e+01	0	0
2260234	2.235000e+00	-2.088238e+02	-8.136655e+01	0	0
2262188	2.235000e+00	-2.255795e+02	-2.949791e+01	0	0
2264141	2.235000e+00	-2.264226e+02	6.073636e+00	0	0
2266094	2.235000e+00	-2.368894e+02	2.887333e+00	0	0
2268047	2.235345e+00	-2.430176e+02	-4.831223e+00	0	0
2270000	2.236000e+00	-2.420808e+02	3.236889e+01	0	0
2271953	2.236000e+00	-2.514819e+02	6.380205e+01	0	0
2273906	2.236000e+00	-2.500907e+02	-9.360929e+00	0	0
2275859	2.236345e+00	-2.412048e+02	1.055783e+01	0	0
2277813	2.237000e+00	-2.479131e+02	-2.314618e+01	0	0
2279766	2.237000e+00	-2.434234e+02	-6.885748e+01	0	0
2281719	2.237000e+00	-2.366924e+02	-2.178672e+01	0	0
2283672	2.237346e+00	-2.376157e+02	-8.482554e-01	0	0
2285625	2.238000e+00	-2.357160e+02	9.213901e-01	0	0
2287578	2.238000e+00	-2.293423e+02	-4.400284e+00	0	0
2289531	2.238000e+00	-2.309127e+02	2.070823e+01	0	0
2291484	2.238000e+00	-2.279593e+02	6.033091e+01	0	0
2293438	2.238347e+00	-2.129141e+02	2.008663e+01	0	0
2295391	2.239000e+00	-2.007888e+02	1.769748e+00	0	0
2297344	2.239000e+00	-2.029168e+02	-1.307606e+01	0	0
2299297	2.239000e+00	-2.081340e+02	-5.193885e+01	0	0
2301250	2.239347e+00	-2.319991e+02	-5.142673e+01	0	0
2303203	2.240000e+00	-2.390143e+02	-3.043086e+01	0	0
2305156	2.240000e+00	-2.283266e+02	6.360257e+00	0	0
2307109	2.240000e+00	-2.432569e+02	-4.554835e+00	0	0
2309063	2.240348e+00	-2.546375e+02	1.715865e+01	0	0
2311016	2.241000e+00	-2.314658e+02	6.490454e+01	0	0
2312969	2.241000e+00	-2.127338e+02	3.450467e+01	0	0
2314922	2.241348e+00	-2.131333e+02	-2.249036e-01	0	0
2316875	2.242000e+00	-1.970615e+02	-1.753743e+01	0	0
2318828	2.242000e+00	-2.031488e+02	-6.597192e+01	0	0
2320781	2.242000e+00	-2.030350e+02	-5.776328e+01	0	0
2322734	2.242348e+00	-2.165908e+02	-3.307440e+01	0	0
2324688	2.243000e+00	-2.248884e+02	6.767641e+00	0	0
2326641	2.243000e+00	-2.202796e+02	-2.005839e+00	0	0
2328594	2.243000e+00	-2.287148e+02	9.519527e+00	0	0
2330547	2.243349e+00	-2.210435e+02	6.089644e+01	0	0
2332500	2.244000e+00	-2.102228e+02	5.589766e+01	0	0
2334453	2.244000e+00	-1.988144e+02	-9.238289e+00	0	0
2336406	2.244000e+00	-1.910421e+02	9.995433e+00	0	0
2338359	2.244349e+00	-2.023002e+02	-2.619007e+01	0	0
2340313	2.245000e+00	-2.146698e+02	-7.713874e+01	0	0
2342266	2.245000e+00	-2.054747e+02	-2.262083e+01	0	0
2344219	2.245000e+00	-2.076861e+02	3.704770e+00	0	0
2346172	2.245349e+00	-2.115216e+02	2.095782e+00	0	0
2348125	2.246000e+00	-2.123759e+02	-6.107849e+00	0	0
2350078	2.246000e+00	-2.150926e+02	3.114331e+01	0	0
2352031	2.246000e+00	-1.966593e+02	6.090386e+01	0	0
2353984	2.246350e+00	-1.949523e+02	-1.128223e+01	0	0
2355938	2.247000e+00	-1.990845e+02	9.799974e+00	0	0
2357891	2.247000e+00	-1.906005e+02	-2.661784e+01	0	0
2359844	2.247000e+00	-1.939183e+02	-6.251527e+01	0	0
2361797	2.247350e+00	-2.029144e+02	-1.087108e+01	0	0
2363750	2.248000e+00	-2.216889e+02	-7.069382e+00	0	0
2365703	2.248000e+00	-2.480451e+02	3.089939e+00	0	0
2367656	2.248000e+00	-2.365348e+02	-4.944940e+00	0	0
2369609	2.248350e+00	-2.244641e+02	2.197091e+01	0	0
2371563	2.249000e+00	-2.017933e+02	5.346901e+01	0	0
2373516	2.249000e+00	-1.861233e+02	5.723381e+00	0	0
2375469	2.249351e+00	-2.035295e+02	4.090327e+00	0	0
2377422	2.250000e+00	-1.991551e+02	-1.765407e+01	0	0
2379375	2.250000e+00	-1.919158e+02	-5.877197e+01	0	0
2381328	2.250000e+00	-1.861361e+02	-4.291471e+01	0	0
2383281	2.250351e+00	-1.844512e+02	-1.975641e+01	0	0
2385234	2.251000e+00	-2.006876e+02	5.156854e+00	0	0
2387188	2.251000e+00	-2.246142e+02	-3.382496e+00	0	0
2389141	2.251352e+00	-2.034399e+02	1.774724e+01	0	0
2391094	2.252000e+00	-1.904542e+02	6.535632e+01	0	0
2393047	2.252000e+00	-1.725444e+02	3.547611e+01	0	0
2395000	2.252000e+00	-1.674947e+02	1.978102e-01	0	0
2396953	2.252352e+00	-1.684973e+02	-1.583201e+01	0	0
2398906	2.253000e+00	-1.859714e+02	-6.155454e+01	0	0
2400859	2.253000e+00	-2.100309e+02	-4.792997e+01	0	0
2402813	2.253000e+00	-1.970882e+02	-2.270597e+01	0	0
2404766	2.253353e+00	-2.014228e+02	5.467844e+00	0	0
2406719	2.254000e+00	-1.988782e+02	-3.145262e+00	0	0
2408672	2.254353e+00	-1.932812e+02	1.472131e+01	0	0
2410625	2.255000e+00	-1.858862e+02	6.868433e+01	0	0
2412578	2.255000e+00	-1.848411e+02	4.911421e+01	0	0
2414531	2.255000e+00	-1.905040e+02	-9.731895e+00	0	0
2416484	2.255353e+00	-1.899370e+02	7.387375e+00	0	0
2418438	2.256000e+00	-1.851123e+02	-2.672568e+01	0	0
2420391	2.256000e+00	-1.970623e+02	-8.198864e+01	0	0
2422344	2.256354e+00	-2.086869e+02	-3.289133e+01	0	0
2424297	2.257000e+00	-2.215636e+02	3.415490e+00	0	0
2426250	2.257000e+00	-2.262544e+02	-1.588233e-01	0	0
2428203	2.257000e+00	-2.319576e+02	-6.930573e+00	0	0
2430156	2.257354e+00	-2.202910e+02	3.417921e+01	0	0
2432109	2.258000e+00	-2.077417e+02	6.523433e+01	0	0
2434063	2.258000e+00	-1.880078e+02	-8.469953e+00	0	0
2436016	2.258000e+00	-1.593238e+02	9.381244e+00	0	0
2437969	2.258354e+00	-1.342020e+02	-3.047995e+01	0	0
2439922	2.259000e+00	-9.569813e+01	-6.960712e+01	0	0
2441875	2.259000e+00	-8.159823e+01	-1.417947e+01	0	0
2443828	2.259355e+00	-8.515790e+01	-7.902888e+00	0	0
2445781	2.260000e+00	-8.542491e+01	-1.068674e+01	0	0
2447734	2.260000e+00	-8.459874e+01	-1.709906e+01	0	0
2449688	2.260355e+00	-8.021063e+01	9.829434e+00	0	0
2451641	2.261000e+00	-8.192670e+01	6.082188e+01	0	0
2453594	2.261000e+00	-5.846110e+01	2.311190e+01	0	0
2455547	2.261355e+00	-3.130225e+01	-5.880725e+00	0	0
2457500	2.262000e+00	-2.467220e+01	-1.873758e+01	0	0
2459453	2.262000e+00	-9.186674e+00	-5.971871e+01	0	0
2461406	2.262355e+00	-1.071045e+01	-4.917079e+01	0	0
2463359	2.263000e+00	1.765374e+00	-1.859492e+01	0	0
2465313	2.263000e+00	1.035528e+01	7.580396e+00	0	0
2467266	2.263000e+00	7.943319e+00	-1.810773e+00	0	0
2469219	2.263356e+00	2.035097e+01	2.254127e+01	0	0
2471172	2.264000e+00	1.381427e+01	5.546902e+01	0	0
2473125	2.264000e+00	5.202244e+00	1.236537e+01	0	0
2475078	2.264356e+00	4.803929e+01	4.007467e-01	0	0
2477031	2.265000e+00	6.903056e+01	-1.874872e+01	0	0
2478984	2.265000e+00	5.314447e+01	-6.062759e+01	0	0
2480938	2.265357e+00	4.418089e+01	-6.146491e+01	0	0
2482891	2.266000e+00	5.092525e+01	-3.825913e+01	0	0
2484844	2.266000e+00	4.167375e+01	9.120783e+00	0	0
2486797	2.266357e+00	3.450634e+01	-2.095760e+00	0	0
2488750	2.267000e+00	4.792785e+01	2.043004e+01	0	0
2490703	2.267000e+00	4.839201e+01	7.054691e+01	0	0
2492656	2.267357e+00	3.239160e+01	4.421294e+01	0	0
2494609	2.268000e+00	3.810064e+01	-4.872994e+00	0	0
2496563	2.268000e+00	5.720901e+01	1.141481e+01	0	0
2498516	2.268358e+00	2.647923e+01	-1.658639e+01	0	0
2500469	2.269000e+00	-2.960156e+00	-7.128013e+01	0	0
2502422	2.269000e+00	-3.561950e+01	-3.223758e+01	0	0
2504375	2.269000e+00	-7.268752e+01	7.120006e+00	0	0
2506328	2.269358e+00	-9.829836e+01	1.824554e+00	0	0
2508281	2.270000e+00	-1.306211e+02	-4.650917e+00	0	0
2510234	2.270000e+00	-1.541163e+02	3.200521e+01	0	0
2512188	2.270359e+00	-1.477319e+02	5.884964e+01	0	0
2514141	2.271000e+00	-1.601796e+02	-1.241839e+01	0	0
2516094	2.271359e+00	-1.702047e+02	7.091393e+00	0	0
2518047	2.272000e+00	-1.829730e+02	-3.084365e+01	0	0
2520000	2.272000e+00	-2.082563e+02	-6.222613e+01	0	0
2521953	2.272359e+00	-2.003040e+02	-4.614839e+00	0	0
2523906	2.273000e+00	-2.117204e+02	-9.795659e+00	0	0
2525859	2.273000e+00	-2.246381e+02	-7.692423e+00	0	0
2527813	2.273360e+00	-2.287247e+02	-1.293770e+01	0	0
2529766	2.274000e+00	-2.420737e+02	1.676185e+01	0	0
2531719	2.274000e+00	-2.328055e+02	5.263951e+01	0	0
2533672	2.274000e+00	-2.176103e+02	6.818787e+00	0	0
2535625	2.274360e+00	-2.146842e+02	2.979444e-02	0	0
2537578	2.275000e+00	-2.241497e+02	-2.215643e+01	0	0
2539531	2.275000e+00	-2.487518e+02	-6.006877e+01	0	0
2541484	2.275360e+00	-2.386415e+02	-3.332481e+01	0	0
2543438	2.276000e+00	-2.568176e+02	-1.531571e+01	0	0
2545391	2.276361e+00	-2.667089e+02	9.453622e-01	0	0
2547344	2.277000e+00	-2.582836e+02	-6.391584e+00	0	0
2549297	2.277000e+00	-2.477257e+02	1.474551e+01	0	0
2551250	2.277361e+00	-2.457519e+02	6.303189e+01	0	0
2553203	2.278000e+00	-2.419128e+02	3.340969e+01	0	0
2555156	2.278000e+00	-2.378405e+02	-4.237432e+00	0	0
2557109	2.278361e+00	-2.461251e+02	-1.308678e+01	0	0
2559063	2.279000e+00	-2.312739e+02	-5.410492e+01	0	0
2561016	2.279000e+00	-2.521837e+02	-5.706125e+01	0	0
2562969	2.279362e+00	-2.566211e+02	-2.784182e+01	0	0
2564922	2.280000e+00	-2.522180e+02	7.780079e+00	0	0
2566875	2.280000e+00	-2.570484e+02	-4.690531e+00	0	0
2568828	2.280362e+00	-2.703932e+02	1.915563e+01	0	0
2570781	2.281000e+00	-2.718680e+02	7.620328e+01	0	0
2572734	2.281000e+00	-2.624423e+02	4.637000e+01	0	0
2574688	2.281362e+00	-2.542637e+02	-4.093009e+00	0	0
2576641	2.282000e+00	-2.459242e+02	-5.936335e-01	0	0
2578594	2.282363e+00	-2.568761e+02	-4.086211e+01	0	0
2580547	2.283000e+00	-2.648818e+02	-7.886998e+01	0	0
2582500	2.283000e+00	-2.758942e+02	-3.505300e+01	0	0
2584453	2.283363e+00	-2.942723e+02	1.190716e+01	0	0
2586406	2.284000e+00	-2.874050e+02	5.366099e+00	0	0
2588359	2.284000e+00	-2.983097e+02	-6.180012e+00	0	0
2590313	2.284363e+00	-2.948773e+02	3.229980e+01	0	0
2592266	2.285000e+00	-2.989222e+02	6.568601e+01	0	0
2594219	2.285000e+00	-3.136164e+02	-4.380832e+00	0	0
2596172	2.285364e+00	-2.979918e+02	3.424664e+00	0	0
2598125	2.286000e+00	-2.950020e+02	-4.221537e+01	0	0
2600078	2.286364e+00	-2.561334e+02	-7.874589e+01	0	0
2602031	2.287000e+00	-1.802885e+02	-2.063369e+01	0	0
2603984	2.287000e+00	-1.139493e+02	2.341417e+00	0	0
2605938	2.287364e+00	-1.140430e+01	2.844415e+01	0	0
2607891	2.288000e+00	9.975113e+01	5.570029e+01	0	0
2609844	2.288000e+00	2.682694e+02	9.811014e+01	0	0
2611797	2.288365e+00	5.590635e+02	1.260144e+02	0	0
2613750	2.289000e+00	8.754436e+02	8.582759e+01	0	0
2615703	2.289000e+00	1.140751e+03	-1.691637e+01	0	0
2617656	2.289365e+00	1.407103e+03	-1.303848e+02	0	0
2619609	2.290000e+00	1.673079e+03	-2.305004e+02	0	0
2621563	2.290000e+00	1.886927e+03	-2.483172e+02	0	0
2623516	2.290365e+00	1.946041e+03	-1.735440e+02	0	0
2625469	2.291000e+00	1.861237e+03	-6.193026e+01	0	0
2627422	2.291366e+00	1.648991e+03	4.070400e+01	0	0
2629375	2.292000e+00	1.264118e+03	1.022751e+02	0	0
2631328	2.292000e+00	9.679530e+02	8.458046e+01	0	0
2633281	2.292366e+00	7.601980e+02	4.728452e+01	0	0
2635234	2.293000e+00	5.440745e+02	2.475198e+01	0	0
2637188	2.293000e+00	2.522721e+02	-1.124964e+01	0	0
2639141	2.293366e+00	-1.544216e+02	-4.385608e+01	0	0
2641094	2.294000e+00	-4.173521e+02	-2.684460e+01	0	0
2643047	2.294367e+00	-4.429031e+02	-9.004775e-01	0	0
2645000	2.295000e+00	-4.224006e+02	-3.951583e+00	0	0
2646953	2.295000e+00	-3.883956e+02	-1.340098e+01	0	0
2648906	2.295367e+00	-3.674647e+02	1.276034e+01	0	0
2650859	2.296000e+00	-3.398960e+02	7.764384e+01	0	0
2652813	2.296000e+00	-2.725717e+02	4.954724e+01	0	0
2654766	2.296367e+00	-2.141888e+02	8.662313e-01	0	0
2656719	2.297000e+00	-1.889366e+02	-7.035987e+00	0	0
2658672	2.297368e+00	-1.727017e+02	-6.229017e+01	0	0
2660625	2.298000e+00	-1.773951e+02	-7.349143e+01	0	0
2662578	2.298000e+00	-1.867137e+02	-2.629741e+01	0	0
2664531	2.298368e+00	-1.946928e+02	8.981998e+00	0	0
2666484	2.299000e+00	-2.170446e+02	6.100783e+00	0	0
2668438	2.299000e+00	-2.163597e+02	-1.994632e+00	0	0
2670391	2.299368e+00	-2.112922e+02	4.274848e+01	0	0
2672344	2.300000e+00	-1.998928e+02	7.196308e+01	0	0
2674297	2.300369e+00	-1.773971e+02	-7.350753e+00	0	0
2676250	2.301000e+00	-1.627089e+02	1.173084e+01	0	0
2678203	2.301000e+00	-1.531493e+02	-2.895586e+01	0	0
2680156	2.301369e+00	-1.584018e+02	-7.479736e+01	0	0
2682109	2.302000e+00	-1.678545e+02	-2.108256e+01	0	0
2684063	2.302369e+00	-1.827662e+02	-5.619753e+00	0	0
2686016	2.303000e+00	-1.933994e+02	-7.236595e+00	0	0
2687969	2.303000e+00	-1.733469e+02	-1.202095e+01	0	0
2689922	2.303369e+00	-1.535859e+02	2.346267e+01	0	0
2691875	2.304000e+00	-1.692862e+02	5.128547e+01	0	0
2693828	2.304000e+00	-1.754792e+02	-3.346459e+00	0	0
2695781	2.304370e+00	-1.439825e+02	8.489032e+00	0	0
2697734	2.305000e+00	-1.647558e+02	-1.376187e+01	0	0
2699688	2.305000e+00	-1.549013e+02	-5.432925e+01	0	0
2701641	2.305370e+00	-1.503226e+02	-3.915043e+01	0	0
2703594	2.306000e+00	-1.625199e+02	-1.681308e+01	0	0
2705547	2.306370e+00	-1.671755e+02	8.060027e+00	0	0
2707500	2.307000e+00	-1.676787e+02	-3.182054e+00	0	0
2709453	2.307000e+00	-1.528511e+02	2.260753e+01	0	0
2711406	2.307371e+00	-1.482520e+02	5.898454e+01	0	0
2713359	2.308000e+00	-1.377292e+02	2.010533e+01	0	0
2715313	2.308000e+00	-1.349586e+02	5.433279e+00	0	0
2717266	2.308371e+00	-1.367235e+02	-1.394955e+01	0	0
2719219	2.309000e+00	-1.450687e+02	-5.793932e+01	0	0
2721172	2.309371e+00	-1.460798e+02	-4.926063e+01	0	0
2723125	2.310000e+00	-1.366816e+02	-2.100346e+01	0	0
2725078	2.310000e+00	-1.433302e+02	9.100405e+00	0	0
2727031	2.310372e+00	-1.449320e+02	-2.849501e+00	0	0
2728984	2.311000e+00	-1.413496e+02	2.101627e+01	0	0
2730938	2.311372e+00	-1.233414e+02	7.089632e+01	0	0
2732891	2.312000e+00	-1.204235e+02	3.542121e+01	0	0
2734844	2.312000e+00	-1.144866e+02	-2.636668e+00	0	0
2736797	2.312372e+00	-9.521837e+01	-6.524692e+00	0	0
2738750	2.313000e+00	-9.785545e+01	-4.874535e+01	0	0
2740703	2.313000e+00	-9.698206e+01	-6.746249e+01	0	0
2742656	2.313373e+00	-1.061727e+02	-3.071071e+01	0	0
2744609	2.314000e+00	-1.116840e+02	1.167053e+01	0	0
2746563	2.314373e+00	-1.075572e+02	2.535010e+00	0	0
2748516	2.315000e+00	-1.115984e+02	7.189917e+00	0	0
2750469	2.315000e+00	-1.041065e+02	5.148813e+01	0	0
2752422	2.315373e+00	-8.811412e+01	5.331811e+01	0	0
2754375	2.316000e+00	-8.434107e+01	-6.823625e+00	0	0
2756328	2.316374e+00	-6.699026e+01	1.049841e+01	0	0
2758281	2.317000e+00	-6.973600e+01	-3.899420e+01	0	0
2760234	2.317000e+00	-7.949788e+01	-7.759706e+01	0	0
2762188	2.317374e+00	-8.188538e+01	-2.667361e+01	0	0
2764141	2.318000e+00	-9.093207e+01	9.512744e+00	0	0
2766094	2.318374e+00	-8.802988e+01	3.641305e+01	0	0
2768047	2.319000e+00	-7.654417e+01	6.727909e+01	0	0
2770000	2.319000e+00	-6.496139e+01	1.064925e+02	0	0
2771953	2.319374e+00	-5.284742e+01	1.357630e+02	0	0
2773906	2.320000e+00	-3.778480e+01	9.404598e+01	0	0
2775859	2.320375e+00	-1.905762e+01	-1.061176e+01	0	0
2777813	2.321000e+00	-1.247776e+01	-1.263991e+02	0	0
2779766	2.321000e+00	-2.858077e+01	-2.266684e+02	0	0
2781719	2.321375e+00	-4.068845e+01	-2.412880e+02	0	0
2783672	2.322000e+00	-3.121246e+01	-1.626315e+02	0	0
2785625	2.322375e+00	-3.679624e+01	-5.020905e+01	0	0
2787578	2.323000e+00	-3.790756e+01	5.129455e+01	0	0
2789531	2.323000e+00	-3.310160e+01	1.108274e+02	0	0
2791484	2.323376e+00	-2.284542e+01	9.052097e+01	0	0
2793438	2.324000e+00	-1.285548e+01	4.939130e+01	0	0
2795391	2.324000e+00	-7.825309e+00	2.226246e+01	0	0
2797344	2.324376e+00	4.834039e+00	-1.923802e+01	0	0
2799297	2.325000e+00	6.236270e+00	-4.949147e+01	0	0
2801250	2.325376e+00	-1.846791e+00	-4.480896e+01	0	0
2803203	2.326000e+00	1.485103e+00	-2.724735e+01	0	0
2805156	2.326377e+00	6.239370e+00	-1.158704e-01	0	0
2807109	2.327000e+00	7.601417e+00	-8.293007e+00	0	0
2809063	2.327000e+00	2.169822e+01	2.165236e+01	0	0
2811016	2.327377e+00	4.446902e+01	7.182706e+01	0	0
2812969	2.328000e+00	7.101547e+01	3.451960e+01	0	0
2814922	2.328377e+00	8.199769e+01	1.227930e+01	0	0
2816875	2.329000e+00	1.032675e+02	-4.105273e+00	0	0
2818828	2.329000e+00	1.187504e+02	-6.182153e+01	0	0
2820781	2.329377e+00	1.286847e+02	-6.121461e+01	0	0
2822734	2.330000e+00	1.343371e+02	-2.277093e+01	0	0
2824688	2.330378e+00	1.197184e+02	2.124205e+01	0	0
2826641	2.331000e+00	1.305617e+02	1.266516e+01	0	0
2828594	2.331000e+00	1.486359e+02	1.709989e+01	0	0
2830547	2.331378e+00	1.611870e+02	6.402088e+01	0	0
2832500	2.332000e+00	1.794711e+02	6.113262e+01	0	0
2834453	2.332378e+00	1.971290e+02	-1.288667e+01	0	0
2836406	2.333000e+00	2.098332e+02	3.642563e+00	0	0
2838359	2.333000e+00	2.240482e+02	-3.465633e+01	0	0
2840313	2.333379e+00	2.262441e+02	-8.289832e+01	0	0
2842266	2.334000e+00	2.301590e+02	-3.203433e+01	0	0
2844219	2.334379e+00	2.480490e+02	-7.212666e+00	0	0
2846172	2.335000e+00	2.523187e+02	-5.729238e+00	0	0
2848125	2.335000e+00	2.654626e+02	-8.424687e+00	0	0
2850078	2.335379e+00	2.711196e+02	2.838799e+01	0	0
2852031	2.336000e+00	2.981695e+02	4.877042e+01	0	0
2853984	2.336000e+00	3.361140e+02	-7.312866e+00	0	0
2855938	2.336380e+00	3.460408e+02	1.016864e+01	0	0
2857891	2.337000e+00	3.413176e+02	-1.909187e+01	0	0
2859844	2.337380e+00	3.476782e+02	-5.623809e+01	0	0
2861797	2.338000e+00	3.365046e+02	-3.277215e+01	0	0
2863750	2.338380e+00	3.366983e+02	-1.393660e+01	0	0
2865703	2.339000e+00	3.659492e+02	2.643319e+00	0	0
2867656	2.339000e+00	3.679570e+02	-5.866792e+00	0	0
2869609	2.339380e+00	3.794153e+02	1.972160e+01	0	0
2871563	2.340000e+00	3.976376e+02	5.492521e+01	0	0
2873516	2.340381e+00	4.340126e+02	1.783298e+01	0	0
2875469	2.341000e+00	4.424047e+02	3.966627e+00	0	0
2877422	2.341000e+00	4.332121e+02	-1.252964e+01	0	0
2879375	2.341381e+00	4.369035e+02	-5.120596e+01	0	0
2881328	2.342000e+00	4.137757e+02	-4.867715e+01	0	0
2883281	2.342000e+00	4.024804e+02	-2.316138e+01	0	0
2885234	2.342381e+00	3.879337e+02	1.036904e+01	0	0
2887188	2.343000e+00	3.563790e+02	-2.016056e+00	0	0
2889141	2.343382e+00	3.504511e+02	2.472969e+01	0	0
2891094	2.344000e+00	3.391450e+02	7.459857e+01	0	0
2893047	2.344382e+00	3.071018e+02	3.748038e+01	0	0
2895000	2.345000e+00	3.037804e+02	1.610753e+00	0	0
2896953	2.345000e+00	2.781718e+02	-9.810937e+00	0	0
2898906	2.345382e+00	2.348783e+02	-5.837432e+01	0	0
2900859	2.346000e+00	2.034867e+02	-6.756130e+01	0	0
2902813	2.346000e+00	1.656665e+02	-2.905468e+01	0	0
2904766	2.346383e+00	1.369684e+02	9.902738e+00	0	0
2906719	2.347000e+00	1.081858e+02	3.030188e+00	0	0
2908672	2.347383e+00	8.341620e+01	4.889282e+00	0	0
2910625	2.348000e+00	5.233219e+01	5.523513e+01	0	0
2912578	2.348000e+00	2.885042e+01	6.260758e+01	0	0
2914531	2.348383e+00	1.808115e+01	-9.505439e+00	0	0
2916484	2.349000e+00	1.320637e+00	1.283234e+01	0	0
2918438	2.349384e+00	-2.013069e+01	-3.101349e+01	0	0
2920391	2.350000e+00	-3.767492e+01	-7.849308e+01	0	0
2922344	2.350000e+00	-6.180008e+01	-1.930368e+01	0	0
2924297	2.350384e+00	-8.044863e+01	2.636857e+00	0	0
2926250	2.351000e+00	-8.311219e+01	1.914038e+00	0	0
2928203	2.351384e+00	-1.132118e+02	-6.854722e+00	0	0
2930156	2.352000e+00	-1.338145e+02	3.278052e+01	0	0
2932109	2.352384e+00	-1.236199e+02	5.488974e+01	0	0
2934063	2.353000e+00	-1.236086e+02	-1.091281e+01	0	0
2936016	2.353000e+00	-1.113209e+02	9.459873e+00	0	0
2937969	2.353000e+00	-1.084240e+02	-2.623229e+01	0	0
2939922	2.353385e+00	-1.139605e+02	-5.890584e+01	0	0
2941875	2.354000e+00	-1.227839e+02	-1.724016e+01	0	0
2943828	2.354385e+00	-1.250981e+02	-6.234281e+00	0	0
2945781	2.355000e+00	-1.300629e+02	3.145604e+00	0	0
2947734	2.355385e+00	-1.663037e+02	-3.898517e+00	0	0
2949688	2.356000e+00	-1.676055e+02	2.119716e+01	0	0
2951641	2.356000e+00	-1.562589e+02	6.554017e+01	0	0
2953594	2.356386e+00	-1.495032e+02	2.938696e+01	0	0
2955547	2.357000e+00	-1.379125e+02	-1.438632e-02	0	0
2957500	2.357386e+00	-1.378443e+02	-1.221437e+01	0	0
2959453	2.358000e+00	-1.469835e+02	-5.285568e+01	0	0
2961406	2.358386e+00	-1.505444e+02	-4.840935e+01	0	0
2963359	2.359000e+00	-1.498728e+02	-1.760741e+01	0	0
2965313	2.359000e+00	-1.608202e+02	6.343292e+00	0	0
2967266	2.359387e+00	-1.758588e+02	-2.955104e+00	0	0
2969219	2.360000e+00	-1.804820e+02	2.251707e+01	0	0
2971172	2.360387e+00	-1.670936e+02	7.081832e+01	0	0
2973125	2.361000e+00	-1.615509e+02	3.579048e+01	0	0
2975078	2.361000e+00	-1.578703e+02	1.346422e+00	0	0
2977031	2.361387e+00	-1.441532e+02	-1.283203e+01	0	0
2978984	2.362000e+00	-1.470696e+02	-5.748541e+01	0	0
2980938	2.362000e+00	-1.434668e+02	-6.156105e+01	0	0
2982891	2.362388e+00	-1.527901e+02	-3.028997e+01	0	0
2984844	2.363000e+00	-1.779155e+02	1.000021e+01	0	0
2986797	2.363388e+00	-1.821511e+02	9.504515e-02	0	0
2988750	2.364000e+00	-1.775502e+02	1.475471e+01	0	0
2990703	2.364388e+00	-1.883014e+02	6.625515e+01	0	0
2992656	2.365000e+00	-1.887468e+02	5.251754e+01	0	0
2994609	2.365000e+00	-1.697372e+02	-6.656867e+00	0	0
2996563	2.365389e+00	-1.567823e+02	1.250708e+01	0	0
2998516	2.366000e+00	-1.463402e+02	-2.629410e+01	0	0
3000469	2.366000e+00	-1.496499e+02	-7.104499e+01	0	0
3002422	2.366389e+00	-1.482822e+02	-1.812290e+01	0	0
3004375	2.367000e+00	-1.525164e+02	6.128871e+00	0	0
3006328	2.367389e+00	-1.727130e+02	4.556947e+00	0	0
3008281	2.368000e+00	-1.688689e+02	-3.805370e+00	0	0
3010234	2.368000e+00	-1.657414e+02	3.500474e+01	0	0
3012188	2.368390e+00	-1.706405e+02	5.551564e+01	0	0
3014141	2.369000e+00	-1.491732e+02	-7.958408e+00	0	0
3016094	2.369000e+00	-1.431559e+02	1.157381e+01	0	0
3018047	2.369390e+00	-1.561059e+02	-2.317065e+01	0	0
3020000	2.370000e+00	-1.557231e+02	-6.283585e+01	0	0
3021953	2.370390e+00	-1.565622e+02	-2.552330e+01	0	0
3023906	2.371000e+00	-1.731947e+02	-3.832768e+00	0	0
3025859	2.371000e+00	-1.712725e+02	5.900984e+00	0	0
3027813	2.371391e+00	-1.785417e+02	-1.932095e+00	0	0
3029766	2.372000e+00	-1.809899e+02	2.681893e+01	0	0
3031719	2.372391e+00	-1.837384e+02	6.249670e+01	0	0
3033672	2.373000e+00	-1.814435e+02	1.941090e+01	0	0
3035625	2.373391e+00	-1.662295e+02	5.384556e+00	0	0
3037578	2.374000e+00	-1.717819e+02	-1.352303e+01	0	0
3039531	2.374000e+00	-1.686428e+02	-5.570948e+01	0	0
3041484	2.374391e+00	-1.648789e+02	-4.638138e+01	0	0
3043438	2.375000e+00	-1.791200e+02	-1.583244e+01	0	0
3045391	2.375392e+00	-1.877150e+02	8.215228e+00	0	0
3047344	2.376000e+00	-1.818079e+02	-1.603183e+00	0	0
3049297	2.376000e+00	-1.686381e+02	2.452186e+01	0	0
3051250	2.376392e+00	-1.599721e+02	6.800938e+01	0	0
3053203	2.377000e+00	-1.655815e+02	3.068773e+01	0	0
3055156	2.377392e+00	-1.490737e+02	3.391382e+00	0	0
3057109	2.378000e+00	-1.286084e+02	-1.627371e+01	0	0
3059063	2.378000e+00	-1.416220e+02	-6.075386e+01	0	0
3061016	2.378393e+00	-1.471074e+02	-5.482186e+01	0	0
3062969	2.379000e+00	-1.455588e+02	-2.634016e+01	0	0
3064922	2.379393e+00	-1.766510e+02	8.972455e+00	0	0
3066875	2.380000e+00	-1.796040e+02	-1.153118e+00	0	0
3068828	2.380000e+00	-1.668183e+02	1.746254e+01	0	0
3070781	2.380393e+00	-1.611495e+02	6.890320e+01	0	0
3072734	2.381000e+00	-1.514587e+02	4.814566e+01	0	0
3074688	2.381394e+00	-1.378903e+02	-6.455536e+00	0	0
3076641	2.382000e+00	-1.357589e+02	1.137933e+01	0	0
3078594	2.382000e+00	-1.312279e+02	-2.562660e+01	0	0
3080547	2.382394e+00	-1.370631e+02	-7.793043e+01	0	0
3082500	2.383000e+00	-1.478565e+02	-2.898671e+01	0	0
3084453	2.383394e+00	-1.492860e+02	7.464016e+00	0	0
3086406	2.384000e+00	-1.550400e+02	3.659968e+00	0	0
3088359	2.384000e+00	-1.562276e+02	-5.129231e+00	0	0
3090313	2.384395e+00	-1.462855e+02	3.797421e+01	0	0
3092266	2.385000e+00	-1.318203e+02	5.958810e+01	0	0
3094219	2.385395e+00	-1.172466e+02	-9.755085e+00	0	0
3096172	2.386000e+00	-1.255878e+02	1.175801e+01	0	0
3098125	2.386000e+00	-1.284405e+02	-2.729451e+01	0	0
3100078	2.386395e+00	-1.345681e+02	-7.587564e+01	0	0
3102031	2.387000e+00	-1.625324e+02	-2.669195e+01	0	0
3103984	2.387395e+00	-1.728840e+02	4.170021e+00	0	0
3105938	2.388000e+00	-1.896829e+02	2.528058e+00	0	0
3107891	2.388000e+00	-1.877525e+02	-4.142124e+00	0	0
3109844	2.388396e+00	-1.899540e+02	2.844250e+01	0	0
3111797	2.389000e+00	-1.771101e+02	6.378669e+01	0	0
3113750	2.389396e+00	-1.425354e+02	1.421817e+01	0	0
3115703	2.390000e+00	-1.309989e+02	4.914956e+00	0	0
3117656	2.390000e+00	-1.227310e+02	-1.603877e+01	0	0
3119609	2.390396e+00	-9.876514e+01	-5.845316e+01	0	0
3121563	2.391000e+00	-1.094144e+02	-5.326962e+01	0	0
3123516	2.391397e+00	-1.025904e+02	-2.324107e+01	0	0
3125469	2.392000e+00	-6.478122e+01	8.412418e+00	0	0
3127422	2.392000e+00	-5.267486e+01	-3.178096e+00	0	0
3129375	2.392397e+00	-4.175720e+01	2.488346e+01	0	0
3131328	2.393000e+00	-9.037812e+00	6.771676e+01	0	0
3133281	2.393397e+00	1.524707e+01	2.865978e+01	0	0
3135234	2.394000e+00	3.082120e+01	3.907792e+00	0	0
3137188	2.394000e+00	3.621533e+01	-1.672136e+01	0	0
3139141	2.394398e+00	3.870178e+01	-6.086930e+01	0	0
3141094	2.395000e+00	3.888048e+01	-5.542745e+01	0	0
3143047	2.395398e+00	2.299263e+01	-2.649545e+01	0	0
3145000	2.396000e+00	1.980687e+01	1.155241e+01	0	0
3146953	2.396000e+00	2.936954e+01	9.348534e-01	0	0
3148906	2.396398e+00	5.170790e+01	2.013801e+01	0	0
3150859	2.397000e+00	6.172217e+01	7.222389e+01	0	0
3152813	2.397000e+00	7.199377e+01	5.030428e+01	0	0
3154766	2.397399e+00	8.281778e+01	-5.385620e+00	0	0
3156719	2.398000e+00	8.781224e+01	1.240308e+01	0	0
3158672	2.398000e+00	8.895843e+01	-2.678008e+01	0	0
3160625	2.398399e+00	9.418910e+01	-7.876377e+01	0	0
3162578	2.399000e+00	1.267150e+02	-2.779749e+01	0	0
3164531	2.399399e+00	1.469516e+02	7.341430e+00	0	0
3166484	2.400000e+00	1.419614e+02	3.994009e+00	0	0
3168438	2.400400e+00	1.318979e+02	-3.425553e+00	0	0
3170391	2.401000e+00	1.164530e+02	4.355444e+01	0	0
3172344	2.401000e+00	1.216772e+02	6.525346e+01	0	0
3174297	2.401400e+00	1.368850e+02	-7.433911e+00	0	0
3176250	2.402000e+00	1.110791e+02	1.226172e+01	0	0
3178203	2.402000e+00	9.844047e+01	-3.382366e+01	0	0
3180156	2.402400e+00	1.058861e+02	-6.161373e+01	0	0
3182109	2.403000e+00	9.991737e+01	-5.004219e+00	0	0
3184063	2.403401e+00	8.326756e+01	-1.016806e+01	0	0
3186016	2.404000e+00	4.728482e+01	-7.927424e+00	0	0
3187969	2.404000e+00	3.472394e+01	-1.268162e+01	0	0
3189922	2.404401e+00	-7.517935e-01	2.101828e+01	0	0
3191875	2.405000e+00	-3.114035e+01	5.341102e+01	0	0
3193828	2.405000e+00	-5.412263e+01	1.024785e+01	0	0
3195781	2.405401e+00	-6.562813e+01	5.972289e+00	0	0
3197734	2.406000e+00	-7.919884e+01	-1.540223e+01	0	0
3199688	2.406402e+00	-9.797901e+01	-5.423628e+01	0	0
3201641	2.407000e+00	-1.156697e+02	-4.430885e+01	0	0
3203594	2.407000e+00	-1.327994e+02	-1.944016e+01	0	0
3205547	2.407402e+00	-1.406714e+02	9.603393e+00	0	0
3207500	2.408000e+00	-1.654106e+02	-2.706032e-02	0	0
3209453	2.408402e+00	-1.573126e+02	2.695295e+01	0	0
3211406	2.409000e+00	-1.619804e+02	6.231281e+01	0	0
3213359	2.409000e+00	-1.740517e+02	2.519625e+01	0	0
3215313	2.409403e+00	-1.799856e+02	7.459175e+00	0	0
3217266	2.410000e+00	-1.841337e+02	-1.342086e+01	0	0
3219219	2.410403e+00	-1.884308e+02	-5.357143e+01	0	0
3221172	2.411000e+00	-2.021822e+02	-5.127964e+01	0	0
3223125	2.411000e+00	-2.213876e+02	-2.464377e+01	0	0
3225078	2.411403e+00	-2.258216e+02	1.336445e+01	0	0
3227031	2.412000e+00	-2.302298e+02	1.314602e+00	0	0
3228984	2.412000e+00	-2.307600e+02	2.509000e+01	0	0
3230938	2.412403e+00	-2.325174e+02	7.937142e+01	0	0
3232891	2.413000e+00	-2.381149e+02	4.905509e+01	0	0
3234844	2.413000e+00	-2.076429e+02	-6.716486e+00	0	0
3236797	2.413404e+00	-1.869101e+02	8.093707e+00	0	0
3238750	2.414000e+00	-1.851519e+02	-2.943881e+01	0	0
3240703	2.414404e+00	-2.016230e+02	-8.853375e+01	0	0
3242656	2.415000e+00	-1.993368e+02	-4.100980e+01	0	0
3244609	2.415000e+00	-1.987887e+02	9.552116e+00	0	0
3246563	2.415404e+00	-2.210888e+02	5.222767e+00	0	0
3248516	2.416000e+00	-2.213912e+02	5.816207e-01	0	0
3250469	2.416405e+00	-2.234507e+02	4.997054e+01	0	0
3252422	2.417000e+00	-2.182339e+02	7.156079e+01	0	0
3254375	2.417000e+00	-2.061735e+02	-4.284618e+00	0	0
3256328	2.417405e+00	-2.049098e+02	1.412460e+01	0	0
3258281	2.418000e+00	-2.047981e+02	-3.443133e+01	0	0
3260234	2.418000e+00	-2.058104e+02	-6.707546e+01	0	0
3262188	2.418405e+00	-2.133389e+02	-1.103466e+01	0	0
3264141	2.419000e+00	-2.389123e+02	-9.006167e+00	0	0
3266094	2.419406e+00	-2.568676e+02	-9.182572e+00	0	0
3268047	2.420000e+00	-2.569571e+02	-1.384146e+01	0	0
3270000	2.420000e+00	-2.717549e+02	1.985514e+01	0	0
3271953	2.420406e+00	-2.700396e+02	5.635489e+01	0	0
3273906	2.421000e+00	-2.508450e+02	1.442891e+01	0	0
3275859	2.421000e+00	-2.219314e+02	5.561595e+00	0	0
3277813	2.421406e+00	-2.180716e+02	-1.366386e+01	0	0
3279766	2.422000e+00	-2.589055e+02	-5.117111e+01	0	0
3281719	2.422407e+00	-2.773950e+02	-3.940537e+01	0	0
3283672	2.423000e+00	-2.581721e+02	-1.745580e+01	0	0
3285625	2.423000e+00	-2.520347e+02	6.721082e+00	0	0
3287578	2.423407e+00	-2.173423e+02	-1.746727e+00	0	0
3289531	2.424000e+00	-1.491074e+02	2.279605e+01	0	0
3291484	2.424000e+00	-6.500627e+01	5.889690e+01	0	0
3293438	2.424407e+00	7.356479e+01	2.454053e+01	0	0
3295391	2.425000e+00	2.186103e+02	3.058878e+00	0	0
3297344	2.425000e+00	4.146296e+02	-1.696575e+01	0	0
3299297	2.425408e+00	7.132472e+02	-5.586681e+01	0	0
3301250	2.426000e+00	1.000669e+03	-4.575124e+01	0	0
3303203	2.426408e+00	1.258420e+03	-2.011022e+01	0	0
3305156	2.427000e+00	1.540897e+03	7.942662e+00	0	0
3307109	2.427000e+00	1.780128e+03	-3.935520e+00	0	0
3309063	2.427000e+00	1.968199e+03	2.673476e+01	0	0
3311016	2.427408e+00	1.994134e+03	8.186976e+01	0	0
3312969	2.428000e+00	1.881615e+03	4.109322e+01	0	0
3314922	2.428409e+00	1.583644e+03	-7.505547e+00	0	0
3316875	2.429000e+00	1.222328e+03	3.595499e+00	0	0
3318828	2.429000e+00	9.781887e+02	-3.908328e+01	0	0
3320781	2.429409e+00	7.285018e+02	-7.795443e+01	0	0
3322734	2.430000e+00	4.932526e+02	-2.643882e+01	0	0
3324688	2.430000e+00	1.074647e+02	2.201609e+00	0	0
3326641	2.430409e+00	-2.660347e+02	1.075660e+00	0	0
3328594	2.431000e+00	-4.135545e+02	-6.008838e+00	0	0
3330547	2.431000e+00	-4.323868e+02	4.339403e+01	0	0
3332500	2.431410e+00	-3.862874e+02	6.313931e+01	0	0
3334453	2.432000e+00	-3.343663e+02	-1.234092e+01	0	0
3336406	2.432410e+00	-2.894928e+02	8.410855e+00	0	0
3338359	2.433000e+00	-2.484974e+02	-3.695493e+01	0	0
3340313	2.433000e+00	-2.068032e+02	-7.677143e+01	0	0
3342266	2.433410e+00	-1.805194e+02	-1.922684e+01	0	0
3344219	2.434000e+00	-1.699541e+02	-3.297597e+00	0	0
3346172	2.434000e+00	-1.476530e+02	-4.218860e+00	0	0
3348125	2.434411e+00	-1.424063e+02	-1.158847e+01	0	0
3350078	2.435000e+00	-1.470707e+02	2.359333e+01	0	0
3352031	2.435000e+00	-1.400255e+02	5.545653e+01	0	0
3353984	2.435411e+00	-1.388296e+02	5.014800e+00	0	0
3355938	2.436000e+00	-1.383077e+02	1.943075e+00	0	0
3357891	2.436000e+00	-1.383552e+02	-2.610184e+01	0	0
3359844	2.436411e+00	-1.482218e+02	-5.737635e+01	0	0
3361797	2.437000e+00	-1.445452e+02	-3.243774e+01	0	0
3363750	2.437000e+00	-1.505153e+02	-1.739645e+01	0	0
3365703	2.437412e+00	-1.668018e+02	3.596953e+00	0	0
3367656	2.438000e+00	-1.609223e+02	-6.552052e+00	0	0
3369609	2.438412e+00	-1.568006e+02	2.252876e+01	0	0
3371563	2.439000e+00	-1.500955e+02	5.518481e+01	0	0
3373516	2.439000e+00	-1.394006e+02	1.502961e+01	0	0
3375469	2.439000e+00	-1.330333e+02	1.512755e+00	0	0
3377422	2.439412e+00	-1.404142e+02	-1.492275e+01	0	0
3379375	2.440000e+00	-1.488934e+02	-5.188524e+01	0	0
3381328	2.440413e+00	-1.583714e+02	-5.283952e+01	0	0
3383281	2.441000e+00	-1.639856e+02	-2.349783e+01	0	0
3385234	2.441000e+00	-1.688080e+02	8.788083e+00	0	0
3387188	2.441413e+00	-1.700931e+02	4.464581e-01	0	0
3389141	2.442000e+00	-1.650848e+02	1.508568e+01	0	0
3391094	2.442000e+00	-1.542662e+02	5.877991e+01	0	0
3393047	2.442413e+00	-1.501184e+02	4.178198e+01	0	0
3395000	2.443000e+00	-1.337056e+02	-2.256082e+00	0	0
3396953	2.443000e+00	-1.205864e+02	1.498629e+00	0	0
3398906	2.443414e+00	-1.381668e+02	-3.634032e+01	0	0
3400859	2.444000e+00	-1.644911e+02	-7.539275e+01	0	0
3402813	2.444000e+00	-1.550444e+02	-3.617700e+01	0	0
3404766	2.444414e+00	-1.568006e+02	1.166150e+01	0	0
3406719	2.445000e+00	-1.632368e+02	7.436875e+00	0	0
3408672	2.445414e+00	-1.449193e+02	-1.321783e+00	0	0
3410625	2.446000e+00	-1.291498e+02	4.380025e+01	0	0
3412578	2.446000e+00	-9.674763e+01	6.029355e+01	0	0
3414531	2.446000e+00	-8.063829e+01	-1.054910e+01	0	0
3416484	2.446415e+00	-7.220557e+01	1.352381e+01	0	0
3418438	2.447000e+00	-6.868325e+01	-3.977426e+01	0	0
3420391	2.447000e+00	-6.774569e+01	-7.320547e+01	0	0
3422344	2.447415e+00	-6.786461e+01	-1.195443e+01	0	0
3424297	2.448000e+00	-8.115063e+01	-1.131679e+01	0	0
3426250	2.448000e+00	-7.679955e+01	-5.637385e+00	0	0
3428203	2.448415e+00	-8.208567e+01	-1.172998e+01	0	0
3430156	2.449000e+00	-7.650539e+01	2.828036e+01	0	0
3432109	2.449000e+00	-6.596640e+01	4.998546e+01	0	0
3434063	2.449416e+00	-5.401519e+01	-3.880049e+00	0	0
3436016	2.450000e+00	-3.291280e+01	1.096975e+01	0	0
3437969	2.450000e+00	-3.245120e+01	-2.096814e+01	0	0
3439922	2.450416e+00	-4.254980e+01	-5.331735e+01	0	0
3441875	2.451000e+00	-6.570333e+01	-2.188343e+01	0	0
3443828	2.451000e+00	-8.004105e+01	-8.769367e+00	0	0
3445781	2.451417e+00	-8.319687e+01	3.510385e+00	0	0
3447734	2.452000e+00	-7.286549e+01	-4.919940e+00	0	0
3449688	2.452000e+00	-6.832389e+01	2.463660e+01	0	0
3451641	2.452417e+00	-5.884866e+01	6.116864e+01	0	0
3453594	2.453000e+00	-3.640129e+01	2.071947e+01	0	0
3455547	2.453000e+00	-2.903913e+01	-1.419782e-01	0	0
3457500	2.453417e+00	-3.883017e+01	-8.478153e+00	0	0
3459453	2.454000e+00	-2.394055e+01	-4.742552e+01	0	0
3461406	2.454000e+00	-2.184335e+01	-4.750145e+01	0	0
3463359	2.454418e+00	-2.777726e+01	-1.038903e+01	0	0
3465313	2.455000e+00	-3.445219e+01	5.196829e+00	0	0
3467266	2.455418e+00	-3.087601e+01	-3.634526e+00	0	0
3469219	2.456000e+00	-2.730925e+01	1.929264e+01	0	0
3471172	2.456000e+00	-2.508821e+01	6.635175e+01	0	0
3473125	2.456418e+00	-1.395525e+01	3.218587e+01	0	0
3475078	2.457000e+00	-1.723852e+01	-5.955269e+00	0	0
3477031	2.457000e+00	-2.046765e+01	-1.175484e+01	0	0
3478984	2.457000e+00	-1.523921e+01	-5.459100e+01	0	0
3480938	2.457419e+00	2.562016e+00	-7.050026e+01	0	0
3482891	2.458000e+00	1.985745e+01	-3.114882e+01	0	0
3484844	2.458000e+00	4.086763e+01	9.480137e+00	0	0
3486797	2.458419e+00	5.051896e+01	5.842851e+00	0	0
3488750	2.459000e+00	5.060809e+01	4.608593e+00	0	0
3490703	2.459000e+00	6.205518e+01	5.347030e+01	0	0
3492656	2.459419e+00	7.508541e+01	5.691579e+01	0	0
3494609	2.460000e+00	8.865733e+01	-1.206334e+01	0	0
3496563	2.460000e+00	1.071618e+02	1.185749e+01	0	0
3498516	2.460420e+00	1.328989e+02	-3.681694e+01	0	0
3500469	2.461000e+00	1.316675e+02	-8.211104e+01	0	0
3502422	2.461000e+00	1.202819e+02	-2.414139e+01	0	0
3504375	2.461420e+00	1.353427e+02	-2.988638e+00	0	0
3506328	2.462000e+00	1.286410e+02	-7.350827e-01	0	0
3508281	2.462000e+00	1.423501e+02	-7.418001e+00	0	0
3510234	2.462421e+00	1.591812e+02	3.376643e+01	0	0
3512188	2.463000e+00	1.692881e+02	4.888186e+01	0	0
3514141	2.463000e+00	1.926798e+02	-8.589429e+00	0	0
3516094	2.463421e+00	2.188300e+02	1.329111e+01	0	0
3518047	2.464000e+00	2.280083e+02	-2.392412e+01	0	0
3520000	2.464000e+00	2.331616e+02	-5.926122e+01	0	0
3521953	2.464421e+00	2.429761e+02	-3.487216e+01	0	0
3523906	2.465000e+00	2.363094e+02	-1.700528e+01	0	0
3525859	2.465000e+00	2.382678e+02	5.966350e+00	0	0
3527813	2.465422e+00	2.410958e+02	-2.491906e+00	0	0
3529766	2.466000e+00	2.601521e+02	2.612176e+01	0	0
3531719	2.466000e+00	2.831365e+02	7.129141e+01	0	0
3533672	2.466000e+00	2.899010e+02	3.103250e+01	0	0
3535625	2.466423e+00	3.179711e+02	-4.008597e+00	0	0
3537578	2.467000e+00	3.394483e+02	-1.529471e+01	0	0
3539531	2.467423e+00	3.490922e+02	-5.776486e+01	0	0
3541484	2.468000e+00	3.437349e+02	-4.649761e+01	0	0
3543438	2.468000e+00	3.494489e+02	-9.113630e+00	0	0
3545391	2.468423e+00	3.618294e+02	2.352175e+00	0	0
3547344	2.469000e+00	3.587667e+02	-4.269576e+00	0	0
3549297	2.469000e+00	3.691129e+02	1.761798e+01	0	0
3551250	2.469000e+00	3.953921e+02	6.919042e+01	0	0
3553203	2.469424e+00	4.189051e+02	4.103144e+01	0	0
3555156	2.470000e+00	4.308457e+02	-3.025265e+00	0	0
3557109	2.470000e+00	4.459817e+02	-1.171712e+01	0	0
3559063	2.470425e+00	4.486305e+02	-5.838872e+01	0	0
3561016	2.471000e+00	4.460118e+02	-6.565950e+01	0	0
3562969	2.471000e+00	4.445592e+02	-2.186867e+01	0	0
3564922	2.471425e+00	4.261058e+02	9.006920e+00	0	0
3566875	2.472000e+00	4.237650e+02	8.610293e-01	0	0
3568828	2.472000e+00	4.252857e+02	9.128607e+00	0	0
3570781	2.472000e+00	3.985170e+02	5.926781e+01	0	0
3572734	2.472425e+00	3.906387e+02	5.350162e+01	0	0
3574688	2.473000e+00	3.856644e+02	-4.919321e+00	0	0
3576641	2.473426e+00	3.552641e+02	9.673770e-01	0	0
3578594	2.474000e+00	3.208846e+02	-4.689668e+01	0	0
3580547	2.474000e+00	2.998291e+02	-8.961175e+01	0	0
3582500	2.474000e+00	2.753400e+02	-3.601386e+01	0	0
3584453	2.474426e+00	2.374347e+02	1.358719e+01	0	0
3586406	2.475000e+00	2.077287e+02	3.457546e+01	0	0
3588359	2.475000e+00	1.887773e+02	6.252957e+01	0	0
3590313	2.475427e+00	1.557469e+02	1.129552e+02	0	0
3592266	2.476000e+00	1.431440e+02	1.429162e+02	0	0
3594219	2.476000e+00	1.218457e+02	8.892906e+01	0	0
3596172	2.476427e+00	9.532745e+01	-1.699734e+01	0	0
3598125	2.477000e+00	7.912402e+01	-1.341933e+02	0	0
3600078	2.477000e+00	4.721747e+01	-2.333106e+02	0	0
3602031	2.477427e+00	1.534776e+01	-2.417662e+02	0	0
3603984	2.478000e+00	-4.804584e+00	-1.657352e+02	0	0
3605938	2.478000e+00	-2.226953e+01	-5.060092e+01	0	0
3607891	2.478000e+00	-4.923475e+01	7.396063e+01	0	0
3609844	2.478428e+00	-6.234519e+01	1.647265e+02	0	0
3611797	2.479000e+00	-5.355149e+01	1.774352e+02	0	0
3613750	2.479000e+00	-5.222056e+01	1.083871e+02	0	0
3615703	2.479428e+00	-6.497106e+01	-1.181235e+01	0	0
3617656	2.480000e+00	-6.900620e+01	-1.379475e+02	0	0
3619609	2.480000e+00	-7.990118e+01	-2.291534e+02	0	0
3621563	2.480429e+00	-9.166745e+01	-2.388135e+02	0	0
3623516	2.481000e+00	-9.951533e+01	-1.745684e+02	0	0
3625469	2.481000e+00	-1.064117e+02	-9.288016e+01	0	0
3627422	2.481429e+00	-1.275350e+02	-1.076854e+01	0	0
3629375	2.482000e+00	-1.336639e+02	6.618409e+01	0	0
3631328	2.482000e+00	-1.305311e+02	9.008747e+01	0	0
3633281	2.482000e+00	-1.398311e+02	5.947629e+01	0	0
3635234	2.482430e+00	-1.234836e+02	3.986622e+01	0	0
3637188	2.483000e+00	-1.200527e+02	2.217266e+00	0	0
3639141	2.483000e+00	-1.194153e+02	-5.265861e+01	0	0
3641094	2.483430e+00	-1.227325e+02	-6.034873e+01	0	0
3643047	2.484000e+00	-1.347695e+02	-2.204655e+01	0	0
3645000	2.484000e+00	-1.475687e+02	1.898420e+01	0	0
3646953	2.484431e+00	-1.694041e+02	7.295695e+00	0	0
3648906	2.485000e+00	-1.770226e+02	1.339805e+01	0	0
3650859	2.485000e+00	-1.631290e+02	6.571373e+01	0	0
3652813	2.485000e+00	-1.284281e+02	5.991606e+01	0	0
3654766	2.485431e+00	-1.153566e+02	-5.985083e+00	0	0
3656719	2.486000e+00	-1.213977e+02	1.471419e+01	0	0
3658672	2.486000e+00	-1.201458e+02	-3.098787e+01	0	0
3660625	2.486432e+00	-1.286049e+02	-7.686485e+01	0	0
3662578	2.487000e+00	-1.454595e+02	-2.230523e+01	0	0
3664531	2.487000e+00	-1.466576e+02	4.631887e+00	0	0
3666484	2.487432e+00	-1.518611e+02	1.057288e+00	0	0
3668438	2.488000e+00	-1.541733e+02	-8.798946e+00	0	0
3670391	2.488000e+00	-1.517699e+02	3.111648e+01	0	0
3672344	2.488000e+00	-1.363271e+02	4.864722e+01	0	0
3674297	2.488433e+00	-1.167635e+02	-9.927553e+00	0	0
3676250	2.489000e+00	-1.272358e+02	-1.705178e+00	0	0
3678203	2.489000e+00	-1.450930e+02	-2.341221e+01	0	0
3680156	2.489433e+00	-1.421923e+02	-4.207444e+01	0	0
3682109	2.490000e+00	-1.492222e+02	-2.475527e+01	0	0
3684063	2.490000e+00	-1.580747e+02	5.181496e+00	0	0
3686016	2.490000e+00	-1.485532e+02	4.600726e+01	0	0
3687969	2.490434e+00	-1.509535e+02	7.015725e+01	0	0
3689922	2.491000e+00	-1.556164e+02	1.119526e+02	0	0
3691875	2.491000e+00	-1.543367e+02	1.269117e+02	0	0
3693828	2.491434e+00	-1.393166e+02	7.427760e+01	0	0
3695781	2.492000e+00	-1.372138e+02	-2.902862e+01	0	0
3697734	2.492000e+00	-1.297588e+02	-1.473311e+02	0	0
3699688	2.492000e+00	-1.206990e+02	-2.403804e+02	0	0
3701641	2.492435e+00	-1.168961e+02	-2.408162e+02	0	0
3703594	2.493000e+00	-1.075900e+02	-1.535750e+02	0	0
3705547	2.493000e+00	-1.129501e+02	-3.837517e+01	0	0
3707500	2.493000e+00	-1.368188e+02	6.744456e+01	0	0
3709453	2.493435e+00	-1.564519e+02	1.280478e+02	0	0
3711406	2.494000e+00	-1.594549e+02	1.125943e+02	0	0
3713359	2.494000e+00	-1.660195e+02	7.244923e+01	0	0
3715313	2.494436e+00	-1.587009e+02	3.851256e+01	0	0
3717266	2.495000e+00	-1.557346e+02	-1.228705e+01	0	0
3719219	2.495000e+00	-1.551896e+02	-5.837117e+01	0	0
3721172	2.495436e+00	-1.587846e+02	-5.493766e+01	0	0
3723125	2.496000e+00	-1.650187e+02	-1.411616e+01	0	0
3725078	2.496000e+00	-1.638377e+02	2.749809e+00	0	0
3727031	2.496000e+00	-1.552246e+02	-9.569837e+00	0	0
3728984	2.496436e+00	-1.397503e+02	6.199619e+00	0	0
3730938	2.497000e+00	-1.310255e+02	6.082013e+01	0	0
3732891	2.497000e+00	-1.249130e+02	4.692713e+01	0	0
3734844	2.497000e+00	-1.189289e+02	-1.136304e+01	0	0
3736797	2.497437e+00	-1.298501e+02	9.750581e+00	0	0
3738750	2.498000e+00	-1.250508e+02	-4.151762e+01	0	0
3740703	2.498000e+00	-1.144073e+02	-7.523478e+01	0	0
3742656	2.498437e+00	-1.128750e+02	-1.374424e+01	0	0
3744609	2.499000e+00	-1.160488e+02	1.508154e+00	0	0
3746563	2.499000e+00	-1.288544e+02	1.802139e+00	0	0
3748516	2.499000e+00	-1.283242e+02	-9.058420e+00	0	0
3750469	2.499438e+00	-1.369898e+02	3.962597e+01	0	0
3752422	2.500000e+00	-1.350824e+02	5.274427e+01	0	0
3754375	2.500000e+00	-1.245169e+02	-1.118281e+01	0	0
3756328	2.500000e+00	-9.937300e+01	1.146461e+01	0	0
3758281	2.500439e+00	-1.087065e+02	-3.314632e+01	0	0
3760234	2.501000e+00	-1.149744e+02	-6.139776e+01	0	0
3762188	2.501000e+00	-1.168359e+02	-1.777955e+01	0	0
3764141	2.501439e+00	-1.334221e+02	-7.504194e+00	0	0
3766094	2.502000e+00	-1.406967e+02	2.931914e-01	0	0
3768047	2.502000e+00	-1.511165e+02	-8.343471e+00	0	0
3770000	2.502000e+00	-1.346285e+02	2.089599e+01	0	0
3771953	2.502440e+00	-1.244438e+02	5.852911e+01	0	0
3773906	2.503000e+00	-1.162104e+02	1.939799e+01	0	0
3775859	2.503000e+00	-1.117548e+02	-2.469036e+00	0	0
3777813	2.503000e+00	-1.103819e+02	-1.580493e+01	0	0
3779766	2.503440e+00	-1.166297e+02	-5.363751e+01	0	0
3781719	2.504000e+00	-1.268974e+02	-4.461132e+01	0	0
3783672	2.504000e+00	-1.373135e+02	-1.335768e+01	0	0
3785625	2.504000e+00	-1.432050e+02	7.900567e-01	0	0
3787578	2.504441e+00	-1.450389e+02	-7.136457e+00	0	0
3789531	2.505000e+00	-1.435883e+02	2.215670e+01	0	0
3791484	2.505000e+00	-1.309811e+02	6.062535e+01	0	0
3793438	2.505442e+00	-1.109482e+02	2.445212e+01	0	0
3795391	2.506000e+00	-1.052428e+02	6.058231e+00	0	0
3797344	2.506000e+00	-1.007753e+02	-1.614906e+01	0	0
3799297	2.506442e+00	-1.040892e+02	-5.333780e+01	0	0
3801250	2.507000e+00	-1.176616e+02	-5.062034e+01	0	0
3803203	2.507000e+00	-1.262483e+02	-2.462021e+01	0	0
3805156	2.507000e+00	-1.333043e+02	1.134253e+01	0	0
3807109	2.507442e+00	-1.301062e+02	-1.737452e-01	0	0
3809063	2.508000e+00	-1.253956e+02	2.250750e+01	0	0
3811016	2.508000e+00	-1.176197e+02	7.166809e+01	0	0
3812969	2.508000e+00	-1.092811e+02	4.422161e+01	0	0
3814922	2.508000e+00	-9.817250e+01	-1.316300e+00	0	0
3816875	2.508443e+00	-9.029114e+01	1.817255e+01	0	0
3818828	2.509000e+00	-1.059404e+02	-1.840370e+01	0	0
3820781	2.509000e+00	-1.141806e+02	-7.866679e+01	0	0
3822734	2.509443e+00	-1.038671e+02	-3.608391e+01	0	0
3824688	2.510000e+00	-1.226954e+02	1.006233e+01	0	0
3826641	2.510000e+00	-1.193309e+02	6.104747e+00	0	0
3828594	2.510000e+00	-1.216188e+02	-2.013072e+00	0	0
3830547	2.510444e+00	-1.277667e+02	4.695358e+01	0	0
3832500	2.511000e+00	-1.139068e+02	5.628984e+01	0	0
3834453	2.511000e+00	-1.042724e+02	-6.121637e+00	0	0
3836406	2.511000e+00	-8.814863e+01	2.010294e+01	0	0
3838359	2.511444e+00	-9.002213e+01	-3.645976e+01	0	0
3840313	2.512000e+00	-1.008657e+02	-6.234704e+01	0	0
3842266	2.512000e+00	-1.110271e+02	-1.450363e+01	0	0
3844219	2.512445e+00	-1.260123e+02	-1.118132e-01	0	0
3846172	2.513000e+00	-1.299244e+02	3.679744e+01	0	0
3848125	2.513000e+00	-1.265568e+02	6.169638e+01	0	0
3850078	2.513000e+00	-1.296868e+02	9.438019e+01	0	0
3852031	2.513000e+00	-1.169160e+02	1.219394e+02	0	0
3853984	2.513446e+00	-9.741627e+01	8.836605e+01	0	0
3855938	2.514000e+00	-7.975155e+01	-1.351266e+01	0	0
3857891	2.514446e+00	-6.947067e+01	-1.385082e+02	0	0
3859844	2.515000e+00	-5.298584e+01	-2.403792e+02	0	0
3861797	2.515000e+00	-6.922300e+00	-2.488180e+02	0	0
3863750	2.515000e+00	1.073749e+01	-1.603625e+02	0	0
3865703	2.515000e+00	1.841903e+00	-4.549350e+01	0	0
3867656	2.515447e+00	2.045843e+01	5.946919e+01	0	0
3869609	2.516000e+00	2.451846e+01	1.202678e+02	0	0
3871563	2.516000e+00	2.851824e+01	1.048520e+02	0	0
3873516	2.516447e+00	5.040395e+01	6.620049e+01	0	0
3875469	2.517000e+00	7.818037e+01	3.824558e+01	0	0
3877422	2.517000e+00	8.530202e+01	-5.405916e+00	0	0
3879375	2.517000e+00	6.537350e+01	-4.790023e+01	0	0
3881328	2.517448e+00	7.252957e+01	-5.307122e+01	0	0
3883281	2.518000e+00	8.756640e+01	-1.637637e+01	0	0
3885234	2.518000e+00	7.043079e+01	1.140877e+01	0	0
3887188	2.518000e+00	6.445129e+01	-4.140140e+00	0	0
3889141	2.518448e+00	7.005177e+01	1.113940e+01	0	0
3891094	2.519000e+00	7.536733e+01	6.454569e+01	0	0
3893047	2.519000e+00	9.165812e+01	5.087695e+01	0	0
3895000	2.519000e+00	1.165365e+02	-2.802307e+00	0	0
3896953	2.519449e+00	1.582376e+02	1.516778e+01	0	0
3898906	2.520000e+00	1.700252e+02	-3.148731e+01	0	0
3900859	2.520000e+00	1.540035e+02	-6.708617e+01	0	0
3902813	2.520000e+00	1.394433e+02	-1.015915e+01	0	0
3904766	2.520450e+00	1.146173e+02	7.899305e+00	0	0
3906719	2.521000e+00	9.901706e+01	6.649141e+00	0	0
3908672	2.521000e+00	1.090889e+02	-5.173467e+00	0	0
3910625	2.521450e+00	1.150216e+02	4.254245e+01	0	0
3912578	2.522000e+00	1.007599e+02	5.179229e+01	0	0
3914531	2.522000e+00	1.115039e+02	-1.328669e+01	0	0
3916484	2.522000e+00	1.296960e+02	7.938505e+00	0	0
3918438	2.522000e+00	1.191977e+02	-3.881827e+01	0	0
3920391	2.522451e+00	1.078018e+02	-6.152386e+01	0	0
3922344	2.523000e+00	8.904975e+01	-7.993652e+00	0	0
3924297	2.523000e+00	5.217686e+01	-4.243901e+00	0	0
3926250	2.523000e+00	6.787524e+00	-5.985810e+00	0	0
3928203	2.523451e+00	-5.832519e+00	-1.475445e+01	0	0
3930156	2.524000e+00	-1.675980e+01	1.773497e+01	0	0
3932109	2.524000e+00	-3.849664e+01	6.037833e+01	0	0
3934063	2.524000e+00	-3.639767e+01	1.778642e+01	0	0
3936016	2.524452e+00	-4.126313e+01	-8.414297e+00	0	0
3937969	2.525000e+00	-5.870420e+01	-2.000845e+01	0	0
3939922	2.525000e+00	-6.517734e+01	-5.796106e+01	0	0
3941875	2.525452e+00	-8.129037e+01	-5.227041e+01	0	0
3943828	2.526000e+00	-1.061305e+02	-1.556458e+01	0	0
3945781	2.526000e+00	-1.258838e+02	5.119330e+00	0	0
3947734	2.526000e+00	-1.263684e+02	-4.434506e+00	0	0
3949688	2.526000e+00	-1.260465e+02	2.778505e+01	0	0
3951641	2.526453e+00	-1.337772e+02	6.567047e+01	0	0
3953594	2.527000e+00	-1.186395e+02	2.351542e+01	0	0
3955547	2.527000e+00	-1.165527e+02	4.013075e+00	0	0
3957500	2.527000e+00	-1.158973e+02	-2.267013e+01	0	0
3959453	2.527453e+00	-1.178485e+02	-6.132615e+01	0	0
3961406	2.528000e+00	-1.330536e+02	-4.968959e+01	0	0
3963359	2.528000e+00	-1.344412e+02	-1.887325e+01	0	0
3965313	2.528454e+00	-1.458997e+02	1.317579e+01	0	0
3967266	2.529000e+00	-1.572148e+02	1.056360e+00	0	0
3969219	2.529000e+00	-1.676322e+02	3.413050e+01	0	0
3971172	2.529000e+00	-1.654633e+02	8.306559e+01	0	0
3973125	2.529000e+00	-1.561166e+02	4.198522e+01	0	0
3975078	2.529454e+00	-1.466677e+02	-7.066566e-01	0	0
3977031	2.530000e+00	-1.287148e+02	1.400964e+01	0	0
3978984	2.530000e+00	-1.286610e+02	-2.287092e+01	0	0
3980938	2.530000e+00	-1.295885e+02	-7.516157e+01	0	0
3982891	2.530455e+00	-1.455659e+02	-3.108618e+01	0	0
3984844	2.531000e+00	-1.625262e+02	8.463602e+00	0	0
3986797	2.531000e+00	-1.769394e+02	2.637702e+00	0	0
3988750	2.531000e+00	-1.797959e+02	-5.472946e+00	0	0
3990703	2.531456e+00	-1.777534e+02	4.000343e+01	0	0
3992656	2.532000e+00	-1.796490e+02	4.802048e+01	0	0
3994609	2.532000e+00	-1.640131e+02	-1.022971e+01	0	0
3996563	2.532000e+00	-1.501280e+02	1.087759e+01	0	0
3998516	2.532000e+00	-1.522765e+02	-3.152597e+01	0	0
4000469	2.532456e+00	-1.525575e+02	-6.606980e+01	0	0
4002422	2.533000e+00	-1.526997e+02	-1.683588e+01	0	0
4004375	2.533000e+00	-1.526209e+02	3.083498e+00	0	0
4006328	2.533000e+00	-1.535390e+02	1.056191e+00	0	0
4008281	2.533457e+00	-1.564614e+02	-6.141573e+00	0	0
4010234	2.534000e+00	-1.516041e+02	3.009490e+01	0	0
4012188	2.534000e+00	-1.599968e+02	5.817918e+01	0	0
4014141	2.534000e+00	-1.811618e+02	1.065551e+01	0	0
4016094	2.534458e+00	-1.950156e+02	5.465629e+00	0	0
4018047	2.535000e+00	-2.036397e+02	-2.696645e+01	0	0
4020000	2.535000e+00	-2.080771e+02	-5.095099e+01	0	0
4021953	2.535000e+00	-1.776413e+02	-2.729050e+01	0	0
4023906	2.535458e+00	-1.239505e+02	-1.550326e+01	0	0
4025859	2.536000e+00	-5.157136e+01	6.761466e+00	0	0
4027813	2.536000e+00	2.503701e+01	-4.832017e+00	0	0
4029766	2.536459e+00	1.295097e+02	3.003631e+01	0	0
4031719	2.537000e+00	2.891720e+02	6.244101e+01	0	0
4033672	2.537000e+00	5.314816e+02	1.848976e+01	0	0
4035625	2.537000e+00	8.274510e+02	4.167678e+00	0	0
4037578	2.537000e+00	1.092048e+03	-1.734027e+01	0	0
4039531	2.537459e+00	1.357906e+03	-5.665793e+01	0	0
4041484	2.538000e+00	1.616301e+03	-6.316031e+01	0	0
4043438	2.538000e+00	1.850085e+03	-2.794346e+01	0	0
4045391	2.538000e+00	1.977426e+03	1.122569e+01	0	0
4047344	2.538460e+00	1.943834e+03	1.835821e-01	0	0
4049297	2.539000e+00	1.775500e+03	1.955846e+01	0	0
4051250	2.539000e+00	1.417751e+03	7.282616e+01	0	0
4053203	2.539000e+00	1.094194e+03	4.819192e+01	0	0
4055156	2.539000e+00	8.794663e+02	-5.182428e+00	0	0
4057109	2.539460e+00	6.773868e+02	1.549444e+01	0	0
4059063	2.540000e+00	4.184093e+02	-3.272663e+01	0	0
4061016	2.540000e+00	1.284501e+01	-7.176691e+01	0	0
4062969	2.540000e+00	-2.547212e+02	-1.606198e+01	0	0
4064922	2.540461e+00	-3.269183e+02	5.495473e+00	0	0
4066875	2.541000e+00	-3.321947e+02	3.592598e+00	0	0
4068828	2.541000e+00	-2.942899e+02	-6.051486e+00	0	0
4070781	2.541000e+00	-2.532425e+02	4.903848e+01	0	0
4072734	2.541461e+00	-2.075496e+02	5.934131e+01	0	0
4074688	2.542000e+00	-1.384382e+02	-6.177035e+00	0	0
4076641	2.542000e+00	-8.009269e+01	1.380517e+01	0	0
4078594	2.542000e+00	-7.534291e+01	-3.648231e+01	0	0
4080547	2.542000e+00	-8.290159e+01	-6.435171e+01	0	0
4082500	2.542462e+00	-8.544738e+01	-1.320929e+01	0	0
4084453	2.543000e+00	-9.243068e+01	-6.268740e+00	0	0
4086406	2.543000e+00	-9.373229e+01	-7.188952e+00	0	0
4088359	2.543000e+00	-9.975867e+01	-1.398274e+01	0	0
4090313	2.543463e+00	-1.002335e+02	2.854745e+01	0	0
4092266	2.544000e+00	-8.896480e+01	4.403095e+01	0	0
4094219	2.544000e+00	-7.292216e+01	-2.293617e+00	0	0
4096172	2.544000e+00	-4.897254e+01	8.764682e+00	0	0
4098125	2.544000e+00	-5.336516e+01	-1.642565e+01	0	0
4100078	2.544464e+00	-6.984160e+01	-4.710127e+01	0	0
4102031	2.545000e+00	-7.272088e+01	-4.532038e+01	0	0
4103984	2.545000e+00	-6.853339e+01	-1.968782e+01	0	0
4105938	2.545000e+00	-8.537230e+01	9.080933e+00	0	0
4107891	2.545464e+00	-9.760031e+01	-5.273647e+00	0	0
4109844	2.546000e+00	-1.037176e+02	2.656360e+01	0	0
4111797	2.546000e+00	-9.680387e+01	6.249928e+01	0	0
4113750	2.546000e+00	-8.054758e+01	2.325867e+01	0	0
4115703	2.546000e+00	-6.766997e+01	-3.075633e+00	0	0
4117656	2.546465e+00	-5.481602e+01	-9.494779e+00	0	0
4119609	2.547000e+00	-5.607422e+01	-5.093242e+01	0	0
4121563	2.547000e+00	-7.106527e+01	-4.729969e+01	0	0
4123516	2.547000e+00	-6.857060e+01	-5.318521e+00	0	0
4125469	2.547466e+00	-6.695122e+01	5.373064e+00	0	0
4127422	2.548000e+00	-8.491754e+01	7.695342e-01	0	0
4129375	2.548000e+00	-7.652818e+01	2.290682e+01	0	0
4131328	2.548000e+00	-5.963950e+01	7.452578e+01	0	0
4133281	2.548000e+00	-5.827877e+01	4.229189e+01	0	0
4135234	2.548466e+00	-4.856070e+01	-1.115873e+00	0	0
4137188	2.549000e+00	-2.558588e+01	-7.059182e+00	0	0
4139141	2.549000e+00	-3.618200e+01	-5.282040e+01	0	0
4141094	2.549000e+00	-5.342749e+01	-7.168611e+01	0	0
4143047	2.549467e+00	-5.142224e+01	-2.696240e+01	0	0
4145000	2.550000e+00	-5.375855e+01	8.230914e+00	0	0
4146953	2.550000e+00	-6.502048e+01	5.642274e+00	0	0
4148906	2.550000e+00	-7.651372e+01	-2.026537e+00	0	0
4150859	2.550000e+00	-8.570779e+01	4.743501e+01	0	0
4152813	2.550468e+00	-6.179589e+01	5.441951e+01	0	0
4154766	2.551000e+00	-4.311302e+01	-5.585908e+00	0	0
4156719	2.551000e+00	-4.620667e+01	1.161998e+01	0	0
4158672	2.551000e+00	-2.855748e+01	-3.124337e+01	0	0
4160625	2.551468e+00	-1.505383e+01	-6.977264e+01	0	0
4162578	2.552000e+00	-1.724029e+01	-2.160383e+01	0	0
4164531	2.552000e+00	-2.941390e+01	4.647628e+00	0	0
4166484	2.552000e+00	-4.103284e+01	-5.821624e-01	0	0
4168438	2.552000e+00	-3.904510e+01	-7.333357e+00	0	0
4170391	2.552000e+00	-2.724648e+01	2.452551e+01	0	0
4172344	2.552469e+00	-2.182554e+01	4.608755e+01	0	0
4174297	2.553000e+00	-2.351379e+01	5.321653e+00	0	0
4176250	2.553000e+00	-1.171115e+00	2.718024e+00	0	0
4178203	2.553000e+00	2.389255e+01	-2.363278e+01	0	0
4180156	2.553000e+00	1.635758e+01	-4.317877e+01	0	0
4182109	2.553469e+00	8.553681e+00	-1.565818e+01	0	0
4184063	2.554000e+00	1.090283e+01	-5.006188e+00	0	0
4186016	2.554000e+00	2.757774e+00	3.425001e+00	0	0
4187969	2.554000e+00	5.649618e+00	-3.700243e+00	0	0
4189922	2.554470e+00	2.735481e+01	2.279921e+01	0	0
4191875	2.555000e+00	3.019256e+01	5.556195e+01	0	0
4193828	2.555000e+00	3.014636e+01	2.044336e+01	0	0
4195781	2.555000e+00	5.328854e+01	1.061585e+00	0	0
4197734	2.555470e+00	6.310268e+01	-1.771395e+01	0	0
4199688	2.556000e+00	5.556840e+01	-5.057117e+01	0	0
4201641	2.556000e+00	7.189487e+01	-4.563263e+01	0	0
4203594	2.556000e+00	8.275756e+01	-1.764314e+01	0	0
4205547	2.556471e+00	8.076672e+01	6.745719e+00	0	0
4207500	2.557000e+00	7.228018e+01	-4.339967e+00	0	0
4209453	2.557000e+00	6.215399e+01	2.800891e+01	0	0
4211406	2.557000e+00	7.022452e+01	7.320536e+01	0	0
4213359	2.557000e+00	7.712123e+01	3.171425e+01	0	0
4215313	2.557000e+00	9.132000e+01	-8.533493e-01	0	0
4217266	2.557472e+00	9.866718e+01	-9.961676e+00	0	0
4219219	2.558000e+00	9.772723e+01	-5.306233e+01	0	0
4221172	2.558000e+00	9.167485e+01	-6.633110e+01	0	0
4223125	2.558000e+00	9.031391e+01	-2.528751e+01	0	0
4225078	2.558473e+00	1.025998e+02	4.171896e+00	0	0
4227031	2.559000e+00	1.020933e+02	9.896599e-02	0	0
4228984	2.559000e+00	1.163370e+02	7.816648e-01	0	0
4230938	2.559000e+00	1.216522e+02	5.256869e+01	0	0
4232891	2.559000e+00	1.268531e+02	4.754768e+01	0	0
4234844	2.559474e+00	1.600626e+02	-1.057249e+01	0	0
4236797	2.560000e+00	1.728552e+02	1.006997e+01	0	0
4238750	2.560000e+00	1.700582e+02	-3.719858e+01	0	0
4240703	2.560000e+00	1.775442e+02	-6.777125e+01	0	0
4242656	2.560474e+00	1.967103e+02	-1.916848e+01	0	0
4244609	2.561000e+00	1.996277e+02	-5.626989e+00	0	0
4246563	2.561000e+00	2.003101e+02	-4.979284e+00	0	0
4248516	2.561000e+00	2.255201e+02	-9.298577e+00	0	0
4250469	2.561000e+00	2.485488e+02	3.261230e+01	0	0
4252422	2.561000e+00	2.540561e+02	4.132460e+01	0	0
4254375	2.561475e+00	2.807640e+02	-3.799672e+00	0	0
4256328	2.562000e+00	2.992666e+02	1.064098e+01	0	0
4258281	2.562000e+00	2.959857e+02	-1.924871e+01	0	0
4260234	2.562000e+00	3.142103e+02	-5.201052e+01	0	0
4262188	2.562476e+00	3.182507e+02	-2.842060e+01	0	0
4264141	2.563000e+00	3.247806e+02	-4.995918e+00	0	0
4266094	2.563000e+00	3.306745e+02	4.316531e+00	0	0
4268047	2.563000e+00	3.280706e+02	-5.003678e+00	0	0
4270000	2.563000e+00	3.431654e+02	2.833406e+01	0	0
4271953	2.563000e+00	3.706208e+02	5.133157e+01	0	0
4273906	2.563476e+00	3.981126e+02	1.143497e+01	0	0
4275859	2.564000e+00	4.087704e+02	6.899493e+00	0	0
4277813	2.564000e+00	4.187349e+02	-2.272129e+01	0	0
4279766	2.564000e+00	4.283981e+02	-5.246642e+01	0	0
4281719	2.564477e+00	4.360259e+02	-3.929193e+01	0	0
4283672	2.565000e+00	4.383561e+02	-1.760003e+01	0	0
4285625	2.565000e+00	4.372821e+02	5.132573e+00	0	0
4287578	2.565000e+00	4.418024e+02	-7.842907e+00	0	0
4289531	2.565000e+00	4.284210e+02	2.508425e+01	0	0
4291484	2.565000e+00	4.548323e+02	6.822777e+01	0	0
4293438	2.565478e+00	4.998038e+02	2.520638e+01	0	0
4295391	2.566000e+00	5.134415e+02	-1.381822e+00	0	0
4297344	2.566000e+00	5.226020e+02	-1.486809e+01	0	0
4299297	2.566000e+00	5.163552e+02	-4.140705e+01	0	0
4301250	2.566000e+00	4.967145e+02	-6.086307e+01	0	0
4303203	2.566478e+00	4.854344e+02	-3.145536e+01	0	0
4305156	2.567000e+00	4.703683e+02	1.521289e+01	0	0
4307109	2.567000e+00	4.439981e+02	5.367332e+00	0	0
4309063	2.567000e+00	4.391715e+02	5.756564e+00	0	0
4311016	2.567000e+00	4.340247e+02	5.468835e+01	0	0
4312969	2.567479e+00	4.139382e+02	4.825667e+01	0	0
4314922	2.568000e+00	3.963331e+02	-4.584558e+00	0	0
4316875	2.568000e+00	3.936922e+02	6.363049e+00	0	0
4318828	2.568000e+00	3.674653e+02	-5.336237e+01	0	0
4320781	2.568000e+00	3.233935e+02	-7.775893e+01	0	0
4322734	2.568480e+00	2.899151e+02	-2.676683e+01	0	0
4324688	2.569000e+00	2.617165e+02	3.195416e+00	0	0
4326641	2.569000e+00	2.330107e+02	2.989927e+01	0	0
4328594	2.569000e+00	1.956125e+02	5.801189e+01	0	0
4330547	2.569000e+00	1.747352e+02	9.685701e+01	0	0
4332500	2.569480e+00	1.569990e+02	1.212108e+02	0	0
4334453	2.570000e+00	1.432907e+02	7.074180e+01	0	0
4336406	2.570000e+00	1.443361e+02	-3.361428e+01	0	0
4338359	2.570000e+00	1.204903e+02	-1.471988e+02	0	0
4340313	2.570000e+00	7.162286e+01	-2.368223e+02	0	0
4342266	2.570481e+00	3.989830e+01	-2.366495e+02	0	0
4344219	2.571000e+00	8.154022e+00	-1.496933e+02	0	0
4346172	2.571000e+00	-1.812077e+01	-3.945976e+01	0	0
4348125	2.571000e+00	-2.665984e+01	5.815938e+01	0	0
4350078	2.571000e+00	-3.437937e+01	1.061174e+02	0	0
4352031	2.571482e+00	-3.520152e+01	7.948794e+01	0	0
4353984	2.572000e+00	-4.279698e+01	4.052991e+01	0	0
4355938	2.572000e+00	-3.822074e+01	1.464777e+01	0	0
4357891	2.572000e+00	-2.394737e+01	-2.701153e+01	0	0
4359844	2.572000e+00	-2.549325e+01	-4.845194e+01	0	0
4361797	2.572000e+00	-3.558553e+01	-3.797682e+01	0	0
4363750	2.572483e+00	-4.573902e+01	-1.399340e+01	0	0
4365703	2.573000e+00	-5.592224e+01	8.521578e+00	0	0
4367656	2.573000e+00	-6.356180e+01	3.571963e+00	0	0
4369609	2.573000e+00	-6.632643e+01	3.964496e+01	0	0
4371563	2.573000e+00	-6.117420e+01	6.578114e+01	0	0
4373516	2.573484e+00	-5.708344e+01	2.244887e+01	0	0
4375469	2.574000e+00	-5.710953e+01	1.015173e+01	0	0
4377422	2.574000e+00	-6.324009e+01	-1.491762e+01	0	0
4379375	2.574000e+00	-7.573133e+01	-5.368328e+01	0	0
4381328	2.574484e+00	-8.594543e+01	-6.221457e+01	0	0
4383281	2.574516e+00	-8.988309e+01	-2.334048e+01	0	0
4385234	2.574484e+00	-8.289542e+01	1.758494e+01	0	0
4387188	2.575000e+00	-1.023717e+02	7.408332e+00	0	0
4389141	2.575000e+00	-1.096598e+02	7.169004e+00	0	0
4391094	2.575000e+00	-8.260848e+01	5.180575e+01	0	0
4393047	2.575000e+00	-9.546044e+01	4.927634e+01	0	0
4395000	2.575000e+00	-9.897644e+01	-2.437669e-01	0	0
4396953	2.575485e+00	-8.515320e+01	6.594940e+00	0	0
4398906	2.576000e+00	-9.996969e+01	-4.176353e+01	0	0
4400859	2.576000e+00	-9.246318e+01	-7.184654e+01	0	0
4402813	2.576000e+00	-9.858964e+01	-2.317512e+01	0	0
4404766	2.576000e+00	-1.141122e+02	1.536559e+01	0	0
4406719	2.576486e+00	-1.119697e+02	3.423660e+01	0	0
4408672	2.577000e+00	-1.083561e+02	5.982421e+01	0	0
4410625	2.577000e+00	-9.172775e+01	1.071007e+02	0	0
4412578	2.577000e+00	-8.843090e+01	1.299872e+02	0	0
4414531	2.577000e+00	-8.072541e+01	7.283660e+01	0	0
4416484	2.577000e+00	-7.138100e+01	-3.203386e+01	0	0
4418438	2.577487e+00	-8.992731e+01	-1.495565e+02	0	0
4420391	2.578000e+00	-1.017682e+02	-2.382382e+02	0	0
