time	gsr	ecg	emg_trapezius	emg_corrugator	emg_zygomaticus
1328	2.230000e+00	-1.519213e+02	-9.731052e+01	0	0
3281	2.230000e+00	-1.581260e+02	-7.024290e+01	0	0
5234	2.230000e+00	-1.681361e+02	-9.828848e+00	0	0
7188	2.230000e+00	-1.791207e+02	-8.900336e+00	0	0
9141	2.230000e+00	-1.863469e+02	-7.469035e+00	0	0
11094	2.230000e+00	-1.769493e+02	2.885423e+00	0	0
13047	2.230000e+00	-1.647407e+02	8.759427e+01	0	0
15000	2.230000e+00	-1.457756e+02	5.791354e+01	0	0
16953	2.230000e+00	-1.049496e+02	-4.081238e+00	0	0
18906	2.230000e+00	-6.181498e+01	1.000845e+01	0	0
20859	2.229321e+00	-4.366512e+01	-7.188452e+01	0	0
22813	2.229000e+00	-4.505556e+01	-8.436860e+01	0	0
24766	2.229000e+00	-2.967318e+01	-4.366877e+01	0	0
26719	2.229679e+00	-2.113278e+01	-7.524355e+00	0	0
28672	2.229321e+00	-2.129681e+01	8.351703e+00	0	0
30625	2.229000e+00	-2.704351e+01	-9.436601e+00	0	0
32578	2.229000e+00	-2.915276e+00	7.312450e+01	0	0
34531	2.229679e+00	1.444085e+01	7.853399e+01	0	0
36484	2.229321e+00	1.048933e+01	6.714556e+00	0	0
38438	2.229000e+00	2.970956e+01	7.203046e+00	0	0
40391	2.229000e+00	4.690847e+01	-7.021482e+01	0	0
42344	2.229000e+00	5.922817e+01	-9.142098e+01	0	0
44297	2.229000e+00	5.173802e+01	-5.150740e+01	0	0
46250	2.229000e+00	4.710991e+01	-1.157718e+01	0	0
48203	2.229000e+00	6.328377e+01	4.503057e+00	0	0
50156	2.229000e+00	5.501690e+01	-1.085724e+01	0	0
52109	2.229000e+00	6.873942e+01	6.545387e+01	0	0
54063	2.229000e+00	8.317785e+01	1.067795e+02	0	0
56016	2.229000e+00	1.119383e+02	2.164306e+01	0	0
57969	2.229000e+00	1.391810e+02	-1.339934e+00	0	0
59922	2.229000e+00	1.325846e+02	-3.768127e+01	0	0
61875	2.229000e+00	1.168578e+02	-9.355545e+01	0	0
63828	2.229000e+00	1.069570e+02	-9.493769e+01	0	0
65781	2.229000e+00	1.118983e+02	-2.064536e+01	0	0
67734	2.229000e+00	1.034660e+02	6.898873e+00	0	0
69688	2.229000e+00	8.414680e+01	-4.560825e+00	0	0
71641	2.229000e+00	7.899154e+01	2.831350e+01	0	0
73594	2.229000e+00	7.454497e+01	1.040458e+02	0	0
75547	2.229000e+00	6.966254e+01	3.277939e+01	0	0
77500	2.229000e+00	6.857968e+01	-1.346452e+01	0	0
79453	2.229000e+00	4.244914e+01	1.141221e+01	0	0
81406	2.229000e+00	5.522830e+00	-8.768689e+01	0	0
83359	2.229000e+00	-2.045975e+01	-8.099546e+01	0	0
85313	2.229000e+00	-4.126065e+01	-1.186339e+01	0	0
87266	2.229000e+00	-7.485733e+01	-1.462153e+00	0	0
89219	2.229000e+00	-8.238459e+01	2.275367e-01	0	0
91172	2.229000e+00	-1.108161e+02	-2.721362e+00	0	0
93125	2.229000e+00	-1.269978e+02	8.629605e+01	0	0
95078	2.229000e+00	-1.372398e+02	4.623123e+01	0	0
97031	2.229000e+00	-1.386798e+02	-6.141062e+00	0	0
98984	2.228318e+00	-1.517607e+02	1.526708e+01	0	0
100938	2.228683e+00	-1.672406e+02	-6.913681e+01	0	0
102891	2.229000e+00	-1.698586e+02	-9.594820e+01	0	0
104844	2.228317e+00	-1.810318e+02	-5.693461e+01	0	0
106797	2.228000e+00	-1.967852e+02	-1.114731e+01	0	0
108750	2.228000e+00	-2.057162e+02	5.063912e+00	0	0
110703	2.228000e+00	-1.955678e+02	-1.311673e+01	0	0
112656	2.228000e+00	-1.946288e+02	7.281566e+01	0	0
114609	2.228000e+00	-1.939181e+02	8.530305e+01	0	0
116563	2.228000e+00	-1.985841e+02	9.733188e+00	0	0
118516	2.228000e+00	-1.955320e+02	7.914754e+00	0	0
120469	2.228000e+00	-2.082387e+02	-7.000678e+01	0	0
122422	2.228000e+00	-2.183871e+02	-1.022204e+02	0	0
124375	2.228000e+00	-2.099140e+02	-5.218005e+01	0	0
126328	2.228000e+00	-2.152123e+02	-8.472730e+00	0	0
128281	2.228000e+00	-2.349126e+02	3.773526e+00	0	0
130234	2.228000e+00	-2.272289e+02	-1.251497e+01	0	0
132188	2.228000e+00	-2.176644e+02	6.876934e+01	0	0
134141	2.228000e+00	-2.105509e+02	1.082146e+02	0	0
136094	2.228000e+00	-2.131437e+02	2.059241e+01	0	0
138047	2.228000e+00	-2.100465e+02	5.996092e+00	0	0
140000	2.228000e+00	-2.144236e+02	-5.772311e+01	0	0
141953	2.228000e+00	-2.232008e+02	-1.054863e+02	0	0
143906	2.228000e+00	-2.279731e+02	-9.711438e+01	0	0
145859	2.228000e+00	-2.350228e+02	-1.991653e+01	0	0
147813	2.228000e+00	-2.419866e+02	1.104907e+01	0	0
149766	2.228000e+00	-2.460316e+02	1.035969e-01	0	0
151719	2.228000e+00	-2.559368e+02	3.539573e+01	0	0
153672	2.228000e+00	-2.399677e+02	1.138479e+02	0	0
155625	2.228000e+00	-2.287415e+02	3.520220e+01	0	0
157578	2.228000e+00	-2.239192e+02	-1.257528e+01	0	0
159531	2.228000e+00	-2.083145e+02	9.820537e+00	0	0
161484	2.228000e+00	-2.177285e+02	-8.879060e+01	0	0
163438	2.228000e+00	-2.299841e+02	-8.333450e+01	0	0
165391	2.228000e+00	-2.561292e+02	-1.693191e+01	0	0
167344	2.228000e+00	-2.920112e+02	-9.129028e+00	0	0
169297	2.228000e+00	-3.192052e+02	-9.465221e+00	0	0
171250	2.228000e+00	-3.140547e+02	-1.236219e+00	0	0
173203	2.228000e+00	-2.962056e+02	7.910197e+01	0	0
175156	2.228000e+00	-2.364435e+02	5.027339e+01	0	0
177109	2.227315e+00	-1.723537e+02	-6.249971e+00	0	0
179063	2.227000e+00	-7.631450e+01	8.987382e+00	0	0
181016	2.227686e+00	1.165982e+01	-7.178686e+01	0	0
182969	2.228000e+00	1.210010e+02	-7.546438e+01	0	0
184922	2.228000e+00	2.745753e+02	-2.368891e+01	0	0
186875	2.227314e+00	5.502420e+02	-4.998346e+00	0	0
188828	2.227000e+00	8.153050e+02	2.355249e+00	0	0
190781	2.227686e+00	1.065634e+03	-1.220457e+01	0	0
192734	2.227314e+00	1.347609e+03	6.978497e+01	0	0
194688	2.227000e+00	1.584798e+03	7.407852e+01	0	0
196641	2.227000e+00	1.785654e+03	4.350884e+00	0	0
198594	2.227000e+00	1.774817e+03	6.281202e+00	0	0
200547	2.227000e+00	1.661666e+03	-7.181511e+01	0	0
202500	2.227000e+00	1.382187e+03	-8.786675e+01	0	0
204453	2.227000e+00	1.065868e+03	-5.148086e+01	0	0
206406	2.227000e+00	8.254944e+02	-9.784726e+00	0	0
208359	2.227000e+00	6.284269e+02	8.527128e+00	0	0
210313	2.227000e+00	4.473804e+02	-8.862928e+00	0	0
212266	2.227000e+00	1.229757e+02	7.883941e+01	0	0
214219	2.227000e+00	-1.959096e+02	9.886749e+01	0	0
216172	2.227000e+00	-3.328740e+02	1.654065e+01	0	0
218125	2.227000e+00	-3.767597e+02	9.612152e+00	0	0
220078	2.227000e+00	-3.723414e+02	-6.754233e+01	0	0
222031	2.227000e+00	-3.452259e+02	-1.108626e+02	0	0
223984	2.227000e+00	-3.225835e+02	-9.701248e+01	0	0
225938	2.227000e+00	-2.875695e+02	-1.814355e+01	0	0
227891	2.227000e+00	-2.521129e+02	1.171068e+01	0	0
229844	2.227000e+00	-2.136502e+02	-2.622855e+00	0	0
231797	2.227000e+00	-1.898325e+02	3.570603e+01	0	0
233750	2.227000e+00	-1.709119e+02	1.156659e+02	0	0
235703	2.227000e+00	-1.555332e+02	3.518542e+01	0	0
237656	2.227000e+00	-1.396543e+02	-1.337068e+01	0	0
239609	2.227000e+00	-1.461596e+02	1.433729e+01	0	0
241563	2.227000e+00	-1.622304e+02	-9.050170e+01	0	0
243516	2.227000e+00	-1.532287e+02	-9.447699e+01	0	0
245469	2.227000e+00	-1.527116e+02	-1.685911e+01	0	0
247422	2.227000e+00	-1.757729e+02	-3.217176e+00	0	0
249375	2.227000e+00	-1.828529e+02	-3.685157e+00	0	0
251328	2.227000e+00	-1.818764e+02	2.369315e+00	0	0
253281	2.227000e+00	-1.723569e+02	9.389175e+01	0	0
255234	2.227000e+00	-1.616872e+02	4.564270e+01	0	0
257188	2.226311e+00	-1.685926e+02	-9.607120e+00	0	0
259141	2.226000e+00	-1.621482e+02	9.425828e+00	0	0
261094	2.226000e+00	-1.638813e+02	-7.994416e+01	0	0
263047	2.226000e+00	-1.618789e+02	-9.281288e+01	0	0
265000	2.226000e+00	-1.655782e+02	-4.217216e+01	0	0
266953	2.226000e+00	-1.740491e+02	-7.038001e+00	0	0
268906	2.226000e+00	-1.715105e+02	5.940220e+00	0	0
270859	2.226000e+00	-1.660414e+02	-1.130395e+01	0	0
272813	2.226000e+00	-1.558501e+02	7.737612e+01	0	0
274766	2.226000e+00	-1.485279e+02	7.896433e+01	0	0
276719	2.226000e+00	-1.326931e+02	5.373718e+00	0	0
278672	2.226000e+00	-1.286027e+02	7.863471e+00	0	0
280625	2.226000e+00	-1.341526e+02	-7.588255e+01	0	0
282578	2.226000e+00	-1.355282e+02	-9.116015e+01	0	0
284531	2.226000e+00	-1.463401e+02	-5.406364e+01	0	0
286484	2.226000e+00	-1.602061e+02	-1.336024e+01	0	0
288438	2.226000e+00	-1.637313e+02	4.377196e+00	0	0
290391	2.226000e+00	-1.633973e+02	-1.327345e+01	0	0
292344	2.226000e+00	-1.505328e+02	7.053520e+01	0	0
294297	2.226000e+00	-1.333000e+02	9.485450e+01	0	0
296250	2.226000e+00	-1.256359e+02	1.283024e+01	0	0
298203	2.226000e+00	-1.214216e+02	5.766891e+00	0	0
300156	2.226000e+00	-1.148542e+02	-7.607708e+01	0	0
302109	2.226000e+00	-1.154490e+02	-1.059209e+02	0	0
304063	2.226000e+00	-1.087515e+02	-8.110814e+01	0	0
306016	2.226000e+00	-1.164270e+02	-1.777389e+01	0	0
307969	2.226000e+00	-1.253645e+02	7.987684e+00	0	0
309922	2.226000e+00	-1.209904e+02	-7.463420e+00	0	0
311875	2.226000e+00	-1.126324e+02	5.334583e+01	0	0
313828	2.226000e+00	-9.742547e+01	1.222285e+02	0	0
315781	2.226000e+00	-9.659947e+01	3.226234e+01	0	0
317734	2.226000e+00	-9.448585e+01	-1.214143e+01	0	0
319688	2.226000e+00	-7.263125e+01	1.023727e+01	0	0
321641	2.225308e+00	-8.203345e+01	-9.601080e+01	0	0
323594	2.225000e+00	-9.611968e+01	-9.146177e+01	0	0
325547	2.225692e+00	-8.758581e+01	-1.449256e+01	0	0
327500	2.226000e+00	-8.851428e+01	-1.295637e+00	0	0
329453	2.225308e+00	-8.518371e+01	-2.112163e-01	0	0
331406	2.225000e+00	-8.441727e+01	-3.218995e+00	0	0
333359	2.225000e+00	-8.369152e+01	9.384579e+01	0	0
335313	2.225000e+00	-7.262757e+01	3.672617e+01	0	0
337266	2.225000e+00	-6.077031e+01	-9.798143e+00	0	0
339219	2.225000e+00	-5.399369e+01	1.323668e+01	0	0
341172	2.225000e+00	-5.744279e+01	-8.066943e+01	0	0
343125	2.225000e+00	-6.142588e+01	-8.436939e+01	0	0
345078	2.225000e+00	-5.982576e+01	-4.244100e+01	0	0
347031	2.225000e+00	-6.825229e+01	-1.020563e+01	0	0
348984	2.225000e+00	-6.815529e+01	5.484245e+00	0	0
350938	2.225000e+00	-6.116660e+01	-1.147152e+01	0	0
352891	2.225000e+00	-4.840152e+01	7.685943e+01	0	0
354844	2.225000e+00	-3.814460e+01	7.026838e+01	0	0
356797	2.225000e+00	-3.652774e+01	3.467182e+00	0	0
358750	2.225000e+00	-2.690751e+01	9.825426e+00	0	0
360703	2.225000e+00	-2.068758e+00	-7.198611e+01	0	0
362656	2.225000e+00	4.999575e+00	-9.160916e+01	0	0
364609	2.225000e+00	6.717204e+00	-4.195616e+01	0	0
366563	2.225000e+00	1.397778e+01	-7.085719e+00	0	0
368516	2.225000e+00	4.284560e+00	3.886226e+00	0	0
370469	2.225000e+00	9.932903e+00	-1.206042e+01	0	0
372422	2.225000e+00	2.138931e+01	7.231622e+01	0	0
374375	2.225000e+00	1.378248e+01	9.294124e+01	0	0
376328	2.225000e+00	2.479055e+01	1.197665e+01	0	0
378281	2.225000e+00	5.014264e+01	5.832313e+00	0	0
380234	2.225000e+00	6.373809e+01	-7.425309e+01	0	0
382188	2.225000e+00	7.184106e+01	-1.088383e+02	0	0
384141	2.225000e+00	7.580814e+01	-7.724741e+01	0	0
386094	2.225000e+00	8.009435e+01	-1.710820e+01	0	0
388047	2.225000e+00	8.196423e+01	4.634362e+00	0	0
390000	2.225000e+00	7.482157e+01	-9.868138e+00	0	0
391953	2.225000e+00	8.645802e+01	5.775431e+01	0	0
393906	2.224305e+00	9.802091e+01	1.199602e+02	0	0
395859	2.224000e+00	1.134962e+02	2.946792e+01	0	0
397813	2.224000e+00	1.362664e+02	-1.005794e+01	0	0
399766	2.224000e+00	1.496453e+02	7.945415e-01	0	0
401719	2.224000e+00	1.556160e+02	-9.349480e+01	0	0
403672	2.224000e+00	1.600777e+02	-8.671023e+01	0	0
405625	2.224000e+00	1.660924e+02	-1.249452e+01	0	0
407578	2.224000e+00	1.773148e+02	9.756917e-01	0	0
409531	2.224000e+00	1.873240e+02	-1.697900e+00	0	0
411484	2.224000e+00	1.911828e+02	9.218578e+00	0	0
413438	2.224000e+00	2.015618e+02	1.025827e+02	0	0
415391	2.224000e+00	2.255971e+02	3.567242e+01	0	0
417344	2.224000e+00	2.433473e+02	-1.321897e+01	0	0
419297	2.224000e+00	2.534920e+02	1.407452e+01	0	0
421250	2.224000e+00	2.623866e+02	-8.682781e+01	0	0
423203	2.224000e+00	2.575579e+02	-8.427021e+01	0	0
425156	2.224000e+00	2.639174e+02	-1.723462e+01	0	0
427109	2.224000e+00	2.644927e+02	-2.405113e+00	0	0
429063	2.224000e+00	2.875705e+02	2.379898e+00	0	0
431016	2.224000e+00	2.903365e+02	-1.347846e+01	0	0
432969	2.224000e+00	2.933396e+02	8.033571e+01	0	0
434922	2.224000e+00	3.063477e+02	6.180221e+01	0	0
436875	2.224000e+00	3.234360e+02	-1.362571e+00	0	0
438828	2.224000e+00	3.377249e+02	9.027668e+00	0	0
440781	2.224000e+00	3.433207e+02	-7.303524e+01	0	0
442734	2.224000e+00	3.560985e+02	-9.581969e+01	0	0
444688	2.224000e+00	3.585019e+02	-3.752016e+01	0	0
446641	2.224000e+00	3.588222e+02	-5.021456e+00	0	0
448594	2.224000e+00	3.475972e+02	2.401868e+00	0	0
450547	2.224000e+00	3.471475e+02	-1.105552e+01	0	0
452500	2.224000e+00	3.571148e+02	6.803317e+01	0	0
454453	2.224000e+00	3.612791e+02	9.116342e+01	0	0
456406	2.224000e+00	3.643039e+02	1.271808e+01	0	0
458359	2.224000e+00	3.578458e+02	5.092153e+00	0	0
460313	2.224000e+00	3.488032e+02	-6.940258e+01	0	0
462266	2.224000e+00	3.269088e+02	-1.046425e+02	0	0
464219	2.224000e+00	3.058943e+02	-7.367195e+01	0	0
466172	2.224000e+00	2.790828e+02	-1.565956e+01	0	0
468125	2.223302e+00	2.451656e+02	4.640448e+00	0	0
470078	2.223698e+00	2.270343e+02	-1.004611e+01	0	0
472031	2.223302e+00	2.020950e+02	6.103881e+01	0	0
473984	2.223000e+00	1.709526e+02	1.189756e+02	0	0
475938	2.223000e+00	1.485463e+02	2.779899e+01	0	0
477891	2.223000e+00	1.433864e+02	-8.378980e+00	0	0
479844	2.223000e+00	1.107151e+02	-3.709058e+00	0	0
481797	2.223000e+00	8.619647e+01	-9.282825e+01	0	0
483750	2.223000e+00	5.930913e+01	-8.778777e+01	0	0
485703	2.223000e+00	2.750632e+01	-1.295841e+01	0	0
487656	2.223000e+00	6.246437e+00	2.179032e+00	0	0
489609	2.223000e+00	-2.082421e+01	-2.607852e+00	0	0
491563	2.223000e+00	-2.808915e+01	1.599558e+01	0	0
493516	2.223000e+00	-4.090670e+01	1.050591e+02	0	0
495469	2.223000e+00	-6.146967e+01	3.407139e+01	0	0
497422	2.223000e+00	-5.564985e+01	-1.088906e+01	0	0
499375	2.223000e+00	-7.566327e+01	3.013190e+00	0	0
501328	2.223000e+00	-8.981016e+01	-9.103921e+01	0	0
503281	2.223000e+00	-1.022517e+02	-8.208350e+01	0	0
505234	2.223000e+00	-1.116897e+02	-2.115024e+01	0	0
507188	2.223000e+00	-1.255269e+02	-3.570615e+00	0	0
509141	2.223000e+00	-1.391740e+02	2.953427e+00	0	0
511094	2.223000e+00	-1.403185e+02	-1.329553e+01	0	0
513047	2.223000e+00	-1.358664e+02	8.160554e+01	0	0
515000	2.223000e+00	-1.329552e+02	6.788764e+01	0	0
516953	2.223000e+00	-1.333806e+02	6.893514e-01	0	0
518906	2.223000e+00	-1.240804e+02	9.566036e+00	0	0
520859	2.223000e+00	-1.318249e+02	-7.770197e+01	0	0
522813	2.223000e+00	-1.546081e+02	-9.401454e+01	0	0
524766	2.223000e+00	-1.650742e+02	-5.076485e+01	0	0
526719	2.223000e+00	-1.580198e+02	-1.070546e+01	0	0
528672	2.223000e+00	-1.590850e+02	4.400841e+00	0	0
530625	2.223000e+00	-1.661664e+02	-1.222730e+01	0	0
532578	2.222299e+00	-1.804138e+02	7.544461e+01	0	0
534531	2.222701e+00	-1.609617e+02	9.230149e+01	0	0
536484	2.222299e+00	-1.556970e+02	1.113562e+01	0	0
538438	2.222000e+00	-1.609574e+02	7.089044e+00	0	0
540391	2.222000e+00	-1.502780e+02	-7.707382e+01	0	0
542344	2.222000e+00	-1.619793e+02	-9.553024e+01	0	0
544297	2.222000e+00	-1.694665e+02	-7.351849e+01	0	0
546250	2.222000e+00	-1.673787e+02	-1.826269e+01	0	0
548203	2.222000e+00	-1.727362e+02	5.668570e+00	0	0
550156	2.222000e+00	-1.752905e+02	-9.918341e+00	0	0
552109	2.222000e+00	-1.825281e+02	6.176991e+01	0	0
554063	2.222000e+00	-1.745867e+02	1.200654e+02	0	0
556016	2.222000e+00	-1.739077e+02	2.773325e+01	0	0
557969	2.222000e+00	-1.692348e+02	-7.117523e+00	0	0
559922	2.222000e+00	-1.639227e+02	-9.326504e+00	0	0
561875	2.222000e+00	-1.589614e+02	-9.394013e+01	0	0
563828	2.222000e+00	-1.690416e+02	-9.421579e+01	0	0
565781	2.222000e+00	-1.791121e+02	-1.536030e+01	0	0
567734	2.222000e+00	-1.916619e+02	2.493456e+00	0	0
569688	2.222000e+00	-1.842173e+02	2.451988e-01	0	0
571641	2.222000e+00	-1.870310e+02	-6.822251e-01	0	0
573594	2.222000e+00	-1.729680e+02	1.002228e+02	0	0
575547	2.222000e+00	-1.620366e+02	3.624420e+01	0	0
577500	2.222000e+00	-1.543847e+02	-1.147275e+01	0	0
579453	2.222000e+00	-1.531248e+02	5.765953e+00	0	0
581406	2.222000e+00	-1.672067e+02	-9.166470e+01	0	0
583359	2.222000e+00	-1.716642e+02	-8.082884e+01	0	0
585313	2.222000e+00	-1.716918e+02	-1.185252e+01	0	0
587266	2.222000e+00	-1.652018e+02	-6.060137e-01	0	0
589219	2.222000e+00	-1.752837e+02	2.165027e+00	0	0
591172	2.222000e+00	-1.681096e+02	-1.218856e+01	0	0
593125	2.222000e+00	-1.698474e+02	7.823124e+01	0	0
595078	2.222000e+00	-1.445223e+02	7.339996e+01	0	0
597031	2.221297e+00	-1.506580e+02	4.295450e+00	0	0
598984	2.221000e+00	-1.525050e+02	8.071192e+00	0	0
600938	2.221704e+00	-1.458205e+02	-7.014621e+01	0	0
602891	2.221296e+00	-1.466697e+02	-9.472921e+01	0	0
604844	2.221000e+00	-1.510922e+02	-5.334302e+01	0	0
606797	2.221000e+00	-1.582117e+02	-9.710035e+00	0	0
608750	2.221000e+00	-1.766662e+02	4.696811e+00	0	0
610703	2.221000e+00	-1.750309e+02	-1.057375e+01	0	0
612656	2.221000e+00	-1.636512e+02	6.901218e+01	0	0
614609	2.221000e+00	-1.429860e+02	7.526749e+01	0	0
616563	2.221000e+00	-1.464370e+02	7.678715e+00	0	0
618516	2.221000e+00	-1.457370e+02	7.236663e+00	0	0
620469	2.221000e+00	-1.394628e+02	-6.679477e+01	0	0
622422	2.221000e+00	-1.517858e+02	-9.554722e+01	0	0
624375	2.221000e+00	-1.430260e+02	-8.298073e+01	0	0
626328	2.221000e+00	-1.531154e+02	-1.912295e+01	0	0
628281	2.221000e+00	-1.501135e+02	7.326467e+00	0	0
630234	2.221000e+00	-1.514073e+02	-1.008951e+01	0	0
632188	2.221000e+00	-1.491861e+02	6.882557e+01	0	0
634141	2.221000e+00	-1.417047e+02	1.168013e+02	0	0
636094	2.221000e+00	-1.392078e+02	2.507020e+01	0	0
638047	2.221000e+00	-1.327920e+02	-5.360108e+00	0	0
640000	2.221000e+00	-1.435390e+02	-1.215320e+01	0	0
641953	2.221000e+00	-1.368629e+02	-9.082555e+01	0	0
643906	2.221000e+00	-1.337578e+02	-9.860868e+01	0	0
645859	2.221000e+00	-1.504716e+02	-1.781833e+01	0	0
647813	2.221000e+00	-1.512411e+02	3.386470e+00	0	0
649766	2.221000e+00	-1.483843e+02	5.196267e-02	0	0
651719	2.221000e+00	-1.414509e+02	9.608625e+00	0	0
653672	2.221000e+00	-1.471261e+02	1.072267e+02	0	0
655625	2.221000e+00	-1.516618e+02	3.820598e+01	0	0
657578	2.221000e+00	-1.367748e+02	-1.125015e+01	0	0
659531	2.221000e+00	-1.324850e+02	9.442344e+00	0	0
661484	2.221000e+00	-1.285409e+02	-9.144032e+01	0	0
663438	2.221000e+00	-1.352133e+02	-7.475647e+01	0	0
665391	2.221000e+00	-1.424284e+02	-8.582607e+00	0	0
667344	2.220293e+00	-1.528425e+02	-3.380749e+00	0	0
669297	2.220707e+00	-1.586157e+02	-4.755695e+00	0	0
671250	2.220293e+00	-1.471932e+02	3.106278e+00	0	0
673203	2.220000e+00	-1.510491e+02	8.856753e+01	0	0
675156	2.220000e+00	-1.464204e+02	5.797670e+01	0	0
677109	2.220000e+00	-1.553325e+02	-1.035732e+00	0	0
679063	2.220000e+00	-1.308637e+02	9.613885e+00	0	0
681016	2.220000e+00	-1.468439e+02	-7.404088e+01	0	0
682969	2.220000e+00	-1.603330e+02	-9.421551e+01	0	0
684922	2.220000e+00	-1.454617e+02	-5.145125e+01	0	0
686875	2.220000e+00	-1.442407e+02	-8.034562e+00	0	0
688828	2.220000e+00	-1.542082e+02	6.490042e+00	0	0
690781	2.220000e+00	-1.633320e+02	-1.100869e+01	0	0
692734	2.220000e+00	-1.589040e+02	7.577693e+01	0	0
694688	2.220000e+00	-1.571918e+02	8.151406e+01	0	0
696641	2.220000e+00	-1.482321e+02	7.096852e+00	0	0
698594	2.220000e+00	-1.582370e+02	7.251042e+00	0	0
700547	2.220000e+00	-1.530844e+02	-7.599120e+01	0	0
702500	2.220000e+00	-1.526418e+02	-9.362242e+01	0	0
704453	2.220000e+00	-1.596307e+02	-4.972587e+01	0	0
706406	2.220000e+00	-1.686377e+02	-7.901945e+00	0	0
708359	2.220000e+00	-1.669827e+02	6.584704e+00	0	0
710313	2.220000e+00	-1.612828e+02	-7.352280e+00	0	0
712266	2.220000e+00	-1.594841e+02	7.264877e+01	0	0
714219	2.220000e+00	-1.576306e+02	1.233509e+02	0	0
716172	2.220000e+00	-1.482771e+02	2.742009e+01	0	0
718125	2.220000e+00	-1.484956e+02	1.662554e+00	0	0
720078	2.220000e+00	-1.486780e+02	-3.725412e+01	0	0
722031	2.220000e+00	-1.608934e+02	-9.791891e+01	0	0
723984	2.220000e+00	-1.649608e+02	-1.086895e+02	0	0
725938	2.220000e+00	-1.604793e+02	-2.339922e+01	0	0
727891	2.220000e+00	-1.807097e+02	5.264208e+00	0	0
729844	2.220000e+00	-1.777290e+02	-2.522484e+00	0	0
731797	2.220000e+00	-1.705073e+02	1.914727e+01	0	0
733750	2.220000e+00	-1.575780e+02	1.060533e+02	0	0
735703	2.219290e+00	-1.362173e+02	3.140813e+01	0	0
737656	2.219000e+00	-1.297345e+02	-1.500809e+01	0	0
739609	2.219000e+00	-9.232472e+01	1.056236e+01	0	0
741563	2.219000e+00	-4.595345e+01	-9.126543e+01	0	0
743516	2.219000e+00	-3.405202e+01	-8.123336e+01	0	0
745469	2.219000e+00	-3.564437e+01	-1.420606e+01	0	0
747422	2.219000e+00	-2.953991e+01	-5.572879e+00	0	0
749375	2.219000e+00	-1.371814e+01	-2.794710e+00	0	0
751328	2.219000e+00	-3.078233e+01	2.961252e+00	0	0
753281	2.219000e+00	-2.478291e+01	8.645760e+01	0	0
755234	2.219000e+00	-2.544100e+00	4.867444e+01	0	0
757188	2.219000e+00	1.069379e+01	-1.610895e+00	0	0
759141	2.219000e+00	1.617490e+01	1.491304e+01	0	0
761094	2.219000e+00	2.663203e+01	-6.511295e+01	0	0
763047	2.219000e+00	4.402018e+01	-9.329728e+01	0	0
765000	2.219000e+00	2.663488e+01	-5.155435e+01	0	0
766953	2.219000e+00	2.233185e+01	-7.301340e+00	0	0
768906	2.219000e+00	4.789657e+01	6.847042e+00	0	0
770859	2.219000e+00	4.138939e+01	-8.370616e+00	0	0
772813	2.219000e+00	4.359352e+01	7.692895e+01	0	0
774766	2.219000e+00	7.536230e+01	8.114744e+01	0	0
776719	2.219000e+00	1.055790e+02	8.028788e+00	0	0
778672	2.219000e+00	1.117196e+02	6.817750e+00	0	0
780625	2.219000e+00	1.049405e+02	-7.591482e+01	0	0
782578	2.219000e+00	9.768439e+01	-9.074884e+01	0	0
784531	2.219000e+00	8.852178e+01	-5.028890e+01	0	0
786484	2.219000e+00	1.046179e+02	-1.034385e+01	0	0
788438	2.219000e+00	9.732518e+01	4.453596e+00	0	0
790391	2.219000e+00	7.319680e+01	-1.030148e+01	0	0
792344	2.219000e+00	5.952076e+01	7.184068e+01	0	0
794297	2.218287e+00	6.930797e+01	1.193369e+02	0	0
796250	2.218713e+00	7.126601e+01	2.299694e+01	0	0
798203	2.219000e+00	5.817365e+01	-1.022035e+00	0	0
800156	2.219000e+00	2.717711e+01	-4.151706e+01	0	0
802109	2.218287e+00	5.321855e+00	-1.009429e+02	0	0
804063	2.218000e+00	-1.156529e+01	-9.481744e+01	0	0
806016	2.218000e+00	-4.575322e+01	-1.690842e+01	0	0
807969	2.218000e+00	-8.265134e+01	6.922560e+00	0	0
809922	2.218000e+00	-9.134618e+01	-2.551421e+00	0	0
811875	2.218000e+00	-1.105451e+02	3.229837e+01	0	0
813828	2.218000e+00	-1.291988e+02	1.099763e+02	0	0
815781	2.218000e+00	-1.331381e+02	3.088079e+01	0	0
817734	2.218000e+00	-1.443464e+02	-9.916509e+00	0	0
819688	2.218000e+00	-1.425260e+02	5.254461e+00	0	0
821641	2.218000e+00	-1.587858e+02	-9.190766e+01	0	0
823594	2.218000e+00	-1.695352e+02	-7.415734e+01	0	0
825547	2.218000e+00	-1.850677e+02	-8.427248e+00	0	0
827500	2.218000e+00	-1.978620e+02	-1.729926e+00	0	0
829453	2.218000e+00	-1.998110e+02	-2.176876e+00	0	0
831406	2.218000e+00	-2.106105e+02	3.408954e+00	0	0
833359	2.218000e+00	-2.121061e+02	8.925851e+01	0	0
835313	2.218000e+00	-1.914633e+02	5.198096e+01	0	0
837266	2.218000e+00	-1.928417e+02	-4.101052e+00	0	0
839219	2.218000e+00	-1.947992e+02	9.423985e+00	0	0
841172	2.218000e+00	-1.988875e+02	-7.822610e+01	0	0
843125	2.218000e+00	-2.127853e+02	-8.621209e+01	0	0
845078	2.218000e+00	-2.147162e+02	-3.350508e+01	0	0
847031	2.218000e+00	-2.282466e+02	-5.163734e+00	0	0
848984	2.218000e+00	-2.321518e+02	3.779858e+00	0	0
850938	2.218000e+00	-2.331687e+02	-1.093716e+01	0	0
852891	2.218000e+00	-2.346355e+02	7.610264e+01	0	0
854844	2.218000e+00	-2.349036e+02	7.263551e+01	0	0
856797	2.218000e+00	-2.140092e+02	5.047208e+00	0	0
858750	2.217284e+00	-2.158716e+02	8.214560e+00	0	0
860703	2.217000e+00	-2.209652e+02	-7.229360e+01	0	0
862656	2.217000e+00	-2.279316e+02	-9.520497e+01	0	0
864609	2.217000e+00	-2.377602e+02	-7.003879e+01	0	0
866563	2.217000e+00	-2.331496e+02	-1.477184e+01	0	0
868516	2.217000e+00	-2.400103e+02	5.950578e+00	0	0
870469	2.217000e+00	-2.426368e+02	-1.031087e+01	0	0
872422	2.217000e+00	-2.221292e+02	7.094288e+01	0	0
874375	2.217000e+00	-2.242958e+02	1.048422e+02	0	0
876328	2.217000e+00	-2.227660e+02	1.882973e+01	0	0
878281	2.217000e+00	-2.044836e+02	2.385613e+00	0	0
880234	2.217000e+00	-2.307914e+02	-4.601097e+01	0	0
882188	2.217000e+00	-2.358063e+02	-9.678308e+01	0	0
884141	2.217000e+00	-2.138992e+02	-9.779746e+01	0	0
886094	2.217000e+00	-2.099416e+02	-1.922560e+01	0	0
888047	2.217000e+00	-2.395690e+02	8.100880e+00	0	0
890000	2.217000e+00	-2.888829e+02	-2.292851e+00	0	0
891953	2.217000e+00	-3.261290e+02	3.720912e+01	0	0
893906	2.217000e+00	-3.086070e+02	1.109949e+02	0	0
895859	2.217000e+00	-2.853169e+02	3.051476e+01	0	0
897813	2.217000e+00	-2.298210e+02	-1.042967e+01	0	0
899766	2.217000e+00	-1.661261e+02	1.461989e+01	0	0
901719	2.217000e+00	-8.368687e+01	-8.838874e+01	0	0
903672	2.217000e+00	1.098437e+01	-8.067670e+01	0	0
905625	2.217000e+00	1.115127e+02	-1.230369e+01	0	0
907578	2.217000e+00	2.941282e+02	-3.837666e+00	0	0
909531	2.217000e+00	5.763955e+02	-2.683948e+00	0	0
911484	2.217000e+00	8.238584e+02	-1.503578e+00	0	0
913438	2.217000e+00	1.088722e+03	9.119152e+01	0	0
915391	2.217000e+00	1.366839e+03	4.025035e+01	0	0
917344	2.216281e+00	1.623763e+03	-8.884515e+00	0	0
919297	2.216719e+00	1.796635e+03	1.161128e+01	0	0
921250	2.217000e+00	1.749435e+03	-7.922401e+01	0	0
923203	2.217000e+00	1.629703e+03	-8.615492e+01	0	0
925156	2.217000e+00	1.353284e+03	-4.967159e+01	0	0
927109	2.217000e+00	1.025310e+03	-6.741375e+00	0	0
929063	2.217000e+00	7.784943e+02	1.055850e+01	0	0
931016	2.217000e+00	5.927631e+02	-7.915071e+00	0	0
932969	2.216280e+00	3.998588e+02	8.641835e+01	0	0
934922	2.216000e+00	7.870417e+01	7.211909e+01	0	0
936875	2.216000e+00	-2.233379e+02	3.096770e+00	0	0
938828	2.216000e+00	-3.593497e+02	1.013233e+01	0	0
940781	2.216000e+00	-4.002374e+02	-7.940371e+01	0	0
942734	2.216000e+00	-3.972835e+02	-8.952658e+01	0	0
944688	2.216000e+00	-3.656478e+02	-4.952333e+01	0	0
946641	2.216000e+00	-3.431795e+02	-1.280269e+01	0	0
948594	2.216000e+00	-3.003616e+02	-6.556373e-01	0	0
950547	2.216000e+00	-2.509767e+02	-1.788680e+01	0	0
952500	2.216000e+00	-2.182392e+02	7.225425e+01	0	0
954453	2.216000e+00	-1.818342e+02	9.077178e+01	0	0
956406	2.216000e+00	-1.755525e+02	1.256345e+01	0	0
958359	2.216000e+00	-1.550170e+02	7.792044e+00	0	0
960313	2.216000e+00	-1.481967e+02	-5.398563e+01	0	0
962266	2.216000e+00	-1.491141e+02	-1.010702e+02	0	0
964219	2.216000e+00	-1.548220e+02	-9.646166e+01	0	0
966172	2.216000e+00	-1.732043e+02	-9.500702e+00	0	0
968125	2.216000e+00	-1.836220e+02	1.935168e+01	0	0
970078	2.216000e+00	-1.894509e+02	7.204214e+00	0	0
972031	2.216000e+00	-1.829184e+02	4.172568e+01	0	0
973984	2.216000e+00	-1.782286e+02	1.202037e+02	0	0
975938	2.216000e+00	-1.739829e+02	3.280859e+01	0	0
977891	2.216000e+00	-1.753129e+02	-9.311728e+00	0	0
979844	2.216000e+00	-1.691881e+02	5.688357e+00	0	0
981797	2.216000e+00	-1.782062e+02	-1.023319e+02	0	0
983750	2.216000e+00	-1.666358e+02	-8.835534e+01	0	0
985703	2.216000e+00	-1.698399e+02	-1.355808e+01	0	0
987656	2.216000e+00	-1.797305e+02	-3.352977e+00	0	0
989609	2.216000e+00	-1.752710e+02	-3.761881e-01	0	0
991563	2.216000e+00	-1.741038e+02	-5.786496e+00	0	0
993516	2.215277e+00	-1.808553e+02	9.289075e+01	0	0
995469	2.215000e+00	-1.700949e+02	3.913525e+01	0	0
997422	2.215000e+00	-1.568262e+02	-9.450544e+00	0	0
999375	2.215000e+00	-1.528959e+02	1.406476e+01	0	0
1001328	2.215000e+00	-1.585721e+02	-8.070794e+01	0	0
1003281	2.215000e+00	-1.612604e+02	-7.747336e+01	0	0
1005234	2.215000e+00	-1.539675e+02	-3.348491e+01	0	0
1007188	2.215000e+00	-1.567215e+02	-6.594212e+00	0	0
1009141	2.215000e+00	-1.551146e+02	5.046315e+00	0	0
1011094	2.215000e+00	-1.494188e+02	-1.069985e+01	0	0
1013047	2.215000e+00	-1.473463e+02	7.936355e+01	0	0
1015000	2.215000e+00	-1.496899e+02	7.090289e+01	0	0
1016953	2.215000e+00	-1.258432e+02	4.606462e+00	0	0
1018906	2.215000e+00	-1.264161e+02	9.273753e+00	0	0
1020859	2.215000e+00	-1.174761e+02	-7.305118e+01	0	0
1022813	2.215000e+00	-1.088057e+02	-9.594190e+01	0	0
1024766	2.215000e+00	-1.268307e+02	-5.641547e+01	0	0
1026719	2.215000e+00	-1.252751e+02	-1.177450e+01	0	0
1028672	2.215000e+00	-1.323322e+02	2.451538e+00	0	0
1030625	2.215000e+00	-1.311520e+02	-1.226027e+01	0	0
1032578	2.215000e+00	-1.205001e+02	7.254936e+01	0	0
1034531	2.215000e+00	-1.233657e+02	9.598610e+01	0	0
1036484	2.215000e+00	-1.210929e+02	1.506057e+01	0	0
1038438	2.215000e+00	-1.183235e+02	7.960562e+00	0	0
1040391	2.215000e+00	-1.122703e+02	-7.098760e+01	0	0
1042344	2.215000e+00	-1.244393e+02	-1.065117e+02	0	0
1044297	2.215000e+00	-1.086378e+02	-8.976639e+01	0	0
1046250	2.215000e+00	-9.830064e+01	-1.352134e+01	0	0
1048203	2.215000e+00	-9.941935e+01	1.141540e+01	0	0
1050156	2.215000e+00	-1.055918e+02	-9.884666e-01	0	0
1052109	2.215000e+00	-9.913890e+01	4.103346e+01	0	0
1054063	2.215000e+00	-9.667851e+01	1.154169e+02	0	0
1056016	2.215000e+00	-8.926478e+01	3.073497e+01	0	0
1057969	2.215000e+00	-5.243066e+01	-9.408992e+00	0	0
1059922	2.214274e+00	-6.111918e+01	1.278234e+01	0	0
1061875	2.214726e+00	-6.114677e+01	-9.427065e+01	0	0
1063828	2.214274e+00	-6.179591e+01	-9.122603e+01	0	0
1065781	2.214000e+00	-6.131924e+01	-1.213796e+01	0	0
1067734	2.214000e+00	-5.824391e+01	2.307800e+00	0	0
1069688	2.214000e+00	-7.066332e+01	3.241890e+00	0	0
1071641	2.214000e+00	-6.493726e+01	-4.891921e+00	0	0
1073594	2.214000e+00	-5.175679e+01	9.900048e+01	0	0
1075547	2.214000e+00	-6.162968e+01	3.394052e+01	0	0
1077500	2.214000e+00	-4.753368e+01	-8.473198e+00	0	0
1079453	2.214000e+00	-2.150297e+01	1.013311e+01	0	0
1081406	2.214000e+00	-9.535559e+00	-8.527037e+01	0	0
1083359	2.214000e+00	-7.608973e+00	-7.813991e+01	0	0
1085313	2.214000e+00	1.748515e+00	-3.859769e+01	0	0
1087266	2.214000e+00	-7.173612e+00	-7.626531e+00	0	0
1089219	2.214000e+00	-2.099484e+01	5.707040e+00	0	0
1091172	2.214000e+00	-8.459554e+00	-1.113423e+01	0	0
1093125	2.214000e+00	4.660042e+00	8.326501e+01	0	0
1095078	2.214000e+00	1.355041e+01	7.515732e+01	0	0
1097031	2.214000e+00	3.683973e+01	5.155633e+00	0	0
1098984	2.214000e+00	2.829820e+01	9.405999e+00	0	0
1100938	2.214000e+00	2.752799e+01	-7.647322e+01	0	0
1102891	2.214000e+00	4.649087e+01	-9.979033e+01	0	0
1104844	2.214000e+00	3.793007e+01	-5.199641e+01	0	0
1106797	2.214000e+00	4.705254e+01	-7.106295e+00	0	0
1108750	2.214000e+00	5.901928e+01	5.647623e+00	0	0
1110703	2.214000e+00	8.854768e+01	-9.511583e+00	0	0
1112656	2.214000e+00	9.573657e+01	7.696867e+01	0	0
1114609	2.214000e+00	9.839886e+01	9.848872e+01	0	0
1116563	2.214000e+00	1.162341e+02	1.376090e+01	0	0
1118516	2.214000e+00	1.324180e+02	6.571249e+00	0	0
1120469	2.214000e+00	1.349215e+02	-7.353347e+01	0	0
1122422	2.214000e+00	1.323921e+02	-1.080703e+02	0	0
1124375	2.214000e+00	1.438911e+02	-8.065326e+01	0	0
1126328	2.214000e+00	1.606695e+02	-1.481951e+01	0	0
1128281	2.214000e+00	1.673096e+02	5.914553e+00	0	0
1130234	2.214000e+00	1.716381e+02	-9.026051e+00	0	0
1132188	2.214000e+00	1.854647e+02	6.607874e+01	0	0
1134141	2.213270e+00	2.235810e+02	1.171567e+02	0	0
1136094	2.213000e+00	2.418451e+02	2.398750e+01	0	0
1138047	2.213000e+00	2.359897e+02	-1.007499e+01	0	0
1140000	2.213000e+00	2.625008e+02	1.089656e+01	0	0
1141953	2.213000e+00	2.646539e+02	-8.609143e+01	0	0
1143906	2.213000e+00	2.649801e+02	-9.108919e+01	0	0
1145859	2.213000e+00	2.662482e+02	-1.189833e+01	0	0
1147813	2.213000e+00	2.855476e+02	2.911890e+00	0	0
1149766	2.213000e+00	2.815039e+02	1.104839e+00	0	0
1151719	2.213000e+00	3.008651e+02	1.125380e+00	0	0
1153672	2.213000e+00	3.174090e+02	9.513330e+01	0	0
1155625	2.213000e+00	3.268428e+02	3.048134e+01	0	0
1157578	2.213000e+00	3.366108e+02	-6.011398e+00	0	0
1159531	2.213000e+00	3.588126e+02	-3.808948e+00	0	0
1161484	2.213000e+00	3.622366e+02	-8.677915e+01	0	0
1163438	2.213000e+00	3.497198e+02	-8.087774e+01	0	0
1165391	2.213000e+00	3.789417e+02	-4.907314e+01	0	0
1167344	2.213000e+00	3.672263e+02	-9.852000e+00	0	0
1169297	2.213000e+00	3.772685e+02	5.665851e+00	0	0
1171250	2.213000e+00	3.831321e+02	-1.141171e+01	0	0
1173203	2.213000e+00	3.834570e+02	8.051350e+01	0	0
1175156	2.213000e+00	4.048830e+02	6.073445e+01	0	0
1177109	2.213000e+00	4.135984e+02	1.057851e+00	0	0
1179063	2.213000e+00	3.944771e+02	9.818796e+00	0	0
1181016	2.213000e+00	3.873172e+02	-7.461962e+01	0	0
1182969	2.213000e+00	3.546005e+02	-9.389031e+01	0	0
1184922	2.213000e+00	3.384784e+02	-4.671604e+01	0	0
1186875	2.213000e+00	3.201342e+02	-6.348131e+00	0	0
1188828	2.213000e+00	2.790269e+02	5.243326e+00	0	0
1190781	2.213000e+00	2.584007e+02	-1.015379e+01	0	0
1192734	2.213000e+00	2.442224e+02	7.988633e+01	0	0
1194688	2.213000e+00	2.193612e+02	8.602914e+01	0	0
1196641	2.213000e+00	1.886064e+02	9.076135e+00	0	0
1198594	2.213000e+00	1.712338e+02	8.466681e+00	0	0
1200547	2.213000e+00	1.515446e+02	-7.942894e+01	0	0
1202500	2.213000e+00	1.138955e+02	-1.087511e+02	0	0
1204453	2.212267e+00	9.740903e+01	-7.783862e+01	0	0
1206406	2.212733e+00	7.866926e+01	-1.400979e+01	0	0
1208359	2.213000e+00	4.792169e+01	5.439640e+00	0	0
1210313	2.212267e+00	1.555401e+01	-6.795000e+00	0	0
1212266	2.212733e+00	1.668980e+01	5.546038e+01	0	0
1214219	2.213000e+00	1.007550e+00	1.220658e+02	0	0
1216172	2.212267e+00	-1.971491e+01	2.786215e+01	0	0
1218125	2.212000e+00	-3.666818e+01	-7.218519e+00	0	0
1220078	2.212000e+00	-4.253843e+01	-2.202651e+00	0	0
1222031	2.212000e+00	-5.422389e+01	-9.653516e+01	0	0
1223984	2.212000e+00	-7.171505e+01	-8.796300e+01	0	0
1225938	2.212000e+00	-7.907435e+01	-1.048555e+01	0	0
1227891	2.212000e+00	-1.172309e+02	2.344699e+00	0	0
1229844	2.212000e+00	-1.119638e+02	2.064075e+00	0	0
1231797	2.212000e+00	-1.113307e+02	-4.435607e+00	0	0
1233750	2.212000e+00	-1.206657e+02	9.751743e+01	0	0
1235703	2.212000e+00	-1.206991e+02	3.197181e+01	0	0
1237656	2.212000e+00	-1.160038e+02	-1.026552e+01	0	0
1239609	2.212000e+00	-1.340200e+02	1.331502e+01	0	0
1241563	2.212000e+00	-1.101820e+02	-8.188846e+01	0	0
1243516	2.212000e+00	-1.253437e+02	-8.744773e+01	0	0
1245469	2.212000e+00	-1.481186e+02	-2.628053e+01	0	0
1247422	2.212000e+00	-1.438325e+02	-2.294207e+00	0	0
1249375	2.212000e+00	-1.452317e+02	2.961147e+00	0	0
1251328	2.212000e+00	-1.461883e+02	-8.308745e+00	0	0
1253281	2.212000e+00	-1.446720e+02	7.906789e+01	0	0
1255234	2.212000e+00	-1.466861e+02	7.032258e+01	0	0
1257188	2.212000e+00	-1.501520e+02	4.478604e+00	0	0
1259141	2.212000e+00	-1.441818e+02	8.747136e+00	0	0
1261094	2.212000e+00	-1.475803e+02	-7.463872e+01	0	0
1263047	2.212000e+00	-1.556843e+02	-8.599006e+01	0	0
1265000	2.212000e+00	-1.663433e+02	-4.561170e+01	0	0
1266953	2.212000e+00	-1.681402e+02	-7.593032e+00	0	0
1268906	2.212000e+00	-1.855895e+02	4.700151e+00	0	0
1270859	2.212000e+00	-1.753799e+02	-9.746262e+00	0	0
1272813	2.212000e+00	-1.575847e+02	7.502346e+01	0	0
1274766	2.212000e+00	-1.831325e+02	9.337514e+01	0	0
1276719	2.212000e+00	-1.648969e+02	1.210977e+01	0	0
1278672	2.212000e+00	-1.594014e+02	6.607769e+00	0	0
1280625	2.212000e+00	-1.760621e+02	-7.467091e+01	0	0
1282578	2.212000e+00	-1.748567e+02	-1.069451e+02	0	0
1284531	2.212000e+00	-1.803201e+02	-8.356004e+01	0	0
1286484	2.212000e+00	-1.862230e+02	-1.517994e+01	0	0
1288438	2.212000e+00	-1.756981e+02	6.359795e+00	0	0
1290391	2.212000e+00	-1.751602e+02	-8.956180e+00	0	0
1292344	2.211263e+00	-1.820874e+02	6.957993e+01	0	0
1294297	2.211000e+00	-1.627362e+02	1.234619e+02	0	0
1296250	2.211000e+00	-1.661483e+02	2.468537e+01	0	0
1298203	2.211000e+00	-1.625334e+02	-4.262056e+00	0	0
1300156	2.211000e+00	-1.763190e+02	-1.841719e+01	0	0
1302109	2.211000e+00	-1.779780e+02	-1.027617e+02	0	0
1304063	2.211738e+00	-1.807888e+02	-7.161839e+01	0	0
1306016	2.211262e+00	-1.857166e+02	-6.347939e+00	0	0
1307969	2.211000e+00	-1.812662e+02	1.589821e+00	0	0
1309922	2.211000e+00	-1.805915e+02	2.210658e-01	0	0
1311875	2.211000e+00	-1.737425e+02	7.296922e+00	0	0
1313828	2.211000e+00	-1.774152e+02	1.031095e+02	0	0
1315781	2.211000e+00	-1.688886e+02	3.053180e+01	0	0
1317734	2.211000e+00	-1.533637e+02	-1.065825e+01	0	0
1319688	2.211000e+00	-1.631183e+02	1.327337e+01	0	0
1321641	2.211000e+00	-1.474675e+02	-8.648922e+01	0	0
1323594	2.211000e+00	-1.438109e+02	-8.269003e+01	0	0
1325547	2.211000e+00	-1.442502e+02	-2.232103e+01	0	0
1327500	2.211000e+00	-1.455671e+02	-2.664021e+00	0	0
1329453	2.211000e+00	-1.431308e+02	2.988085e+00	0	0
1331406	2.211000e+00	-1.452587e+02	-1.124259e+01	0	0
1333359	2.211000e+00	-1.428803e+02	8.025026e+01	0	0
1335313	2.211000e+00	-1.237846e+02	5.872999e+01	0	0
1337266	2.211000e+00	-1.324051e+02	1.275674e-01	0	0
1339219	2.211000e+00	-1.393510e+02	8.388371e+00	0	0
1341172	2.211000e+00	-1.243379e+02	-7.414649e+01	0	0
1343125	2.211000e+00	-1.278082e+02	-9.527196e+01	0	0
1345078	2.211000e+00	-1.449711e+02	-4.404623e+01	0	0
1347031	2.211000e+00	-1.392821e+02	-6.029074e+00	0	0
1348984	2.211000e+00	-1.377125e+02	3.186825e+00	0	0
1350938	2.211000e+00	-1.486825e+02	-1.047128e+01	0	0
1352891	2.211000e+00	-1.409120e+02	7.399038e+01	0	0
1354844	2.211000e+00	-1.334697e+02	8.574915e+01	0	0
1356797	2.211000e+00	-1.192112e+02	8.971144e+00	0	0
1358750	2.211000e+00	-1.106660e+02	6.350367e+00	0	0
1360703	2.211000e+00	-1.171260e+02	-7.627417e+01	0	0
1362656	2.211000e+00	-1.220698e+02	-8.909036e+01	0	0
1364609	2.211000e+00	-1.354097e+02	-5.071803e+01	0	0
1366563	2.211000e+00	-1.232786e+02	-9.375664e+00	0	0
1368516	2.211000e+00	-1.328114e+02	3.653429e+00	0	0
1370469	2.211000e+00	-1.420057e+02	-1.023611e+01	0	0
1372422	2.211000e+00	-1.290963e+02	7.347814e+01	0	0
1374375	2.210259e+00	-1.328701e+02	1.178686e+02	0	0
1376328	2.210000e+00	-1.390729e+02	2.115897e+01	0	0
1378281	2.210000e+00	-1.059614e+02	-5.567870e+00	0	0
1380234	2.210741e+00	-1.319861e+02	-1.348428e+01	0	0
1382188	2.211000e+00	-1.304119e+02	-9.358234e+01	0	0
1384141	2.210258e+00	-1.300212e+02	-8.711055e+01	0	0
1386094	2.210000e+00	-1.501399e+02	-1.274931e+01	0	0
1388047	2.210742e+00	-1.375377e+02	2.119838e+00	0	0
1390000	2.210258e+00	-1.266700e+02	-1.850917e+00	0	0
1391953	2.210000e+00	-1.234034e+02	1.260058e+01	0	0
1393906	2.210000e+00	-1.218539e+02	1.004265e+02	0	0
1395859	2.210000e+00	-1.107957e+02	2.745465e+01	0	0
1397813	2.210000e+00	-1.072153e+02	-1.118258e+01	0	0
1399766	2.210000e+00	-1.005739e+02	1.229838e+01	0	0
1401719	2.210000e+00	-1.112269e+02	-8.817646e+01	0	0
1403672	2.210000e+00	-1.161620e+02	-6.763528e+01	0	0
1405625	2.210000e+00	-1.315702e+02	-5.830640e+00	0	0
1407578	2.210000e+00	-1.315906e+02	-5.110113e-01	0	0
1409531	2.210000e+00	-1.333777e+02	-8.908925e-01	0	0
1411484	2.210000e+00	-1.582314e+02	3.591443e+00	0	0
1413438	2.210000e+00	-1.430400e+02	8.608772e+01	0	0
1415391	2.210000e+00	-1.411070e+02	6.230079e+01	0	0
1417344	2.210000e+00	-1.396119e+02	1.123030e+00	0	0
1419297	2.210000e+00	-1.333681e+02	8.086425e+00	0	0
1421250	2.210000e+00	-1.375014e+02	-7.905835e+01	0	0
1423203	2.210000e+00	-1.324916e+02	-9.262158e+01	0	0
1425156	2.210000e+00	-1.474026e+02	-4.346346e+01	0	0
1427109	2.210000e+00	-1.420273e+02	-7.041904e+00	0	0
1429063	2.210000e+00	-1.496510e+02	3.274874e+00	0	0
1431016	2.210000e+00	-1.409145e+02	-1.195495e+01	0	0
1432969	2.210000e+00	-1.576757e+02	8.123613e+01	0	0
1434922	2.210000e+00	-1.549254e+02	7.874346e+01	0	0
1436875	2.210000e+00	-1.328408e+02	5.127472e+00	0	0
1438828	2.210000e+00	-1.264750e+02	7.691117e+00	0	0
1440781	2.210000e+00	-1.240271e+02	-8.305093e+01	0	0
1442734	2.210000e+00	-1.348111e+02	-9.271102e+01	0	0
1444688	2.210000e+00	-1.510628e+02	-5.633570e+01	0	0
1446641	2.210000e+00	-1.514017e+02	-1.101140e+01	0	0
1448594	2.210000e+00	-1.469744e+02	3.809518e+00	0	0
1450547	2.210000e+00	-1.491598e+02	-1.106407e+01	0	0
1452500	2.210000e+00	-1.328759e+02	7.445669e+01	0	0
1454453	2.210000e+00	-1.309283e+02	1.190179e+02	0	0
1456406	2.210000e+00	-1.409307e+02	2.079974e+01	0	0
1458359	2.210000e+00	-1.352764e+02	-5.451143e+00	0	0
1460313	2.210000e+00	-1.112994e+02	-1.545353e+01	0	0
1462266	2.210000e+00	-1.384553e+02	-9.577643e+01	0	0
1464219	2.210000e+00	-1.447886e+02	-9.111218e+01	0	0
1466172	2.210000e+00	-1.419402e+02	-1.358562e+01	0	0
1468125	2.210000e+00	-1.458287e+02	2.783744e+00	0	0
1470078	2.210000e+00	-1.564979e+02	-4.065762e-01	0	0
1472031	2.210000e+00	-1.563787e+02	1.568843e+01	0	0
1473984	2.210000e+00	-1.339207e+02	1.068824e+02	0	0
1475938	2.210000e+00	-1.227528e+02	2.867294e+01	0	0
1477891	2.210000e+00	-1.193446e+02	-1.063201e+01	0	0
1479844	2.210000e+00	-8.345300e+01	1.039134e+01	0	0
1481797	2.209254e+00	-6.032315e+01	-9.413722e+01	0	0
1483750	2.209000e+00	-2.692906e+01	-7.274738e+01	0	0
1485703	2.209746e+00	-5.980611e+00	-1.512626e+01	0	0
1487656	2.210000e+00	-1.989174e+01	-4.927225e+00	0	0
1489609	2.210000e+00	-7.881145e+00	1.125469e+00	0	0
1491563	2.210000e+00	4.300802e+00	-9.374071e+00	0	0
1493516	2.210000e+00	1.809357e+01	8.790699e+01	0	0
1495469	2.209253e+00	1.040067e+01	5.284741e+01	0	0
1497422	2.209000e+00	4.345251e+01	-3.241081e+00	0	0
1499375	2.209000e+00	5.028259e+01	1.121554e+01	0	0
1501328	2.209000e+00	5.381882e+01	-7.883117e+01	0	0
1503281	2.209000e+00	7.290006e+01	-8.768155e+01	0	0
1505234	2.209000e+00	7.704345e+01	-6.353600e+01	0	0
1507188	2.209000e+00	8.069071e+01	-1.270323e+01	0	0
1509141	2.209000e+00	8.392658e+01	5.016950e+00	0	0
1511094	2.209000e+00	7.937035e+01	-1.202087e+01	0	0
1513047	2.209000e+00	8.984242e+01	8.034657e+01	0	0
1515000	2.209000e+00	9.171010e+01	8.358090e+01	0	0
1516953	2.209000e+00	1.186727e+02	6.802793e+00	0	0
1518906	2.209000e+00	1.292525e+02	7.101961e+00	0	0
1520859	2.209000e+00	1.344703e+02	-8.200618e+01	0	0
1522813	2.209000e+00	1.262593e+02	-9.114647e+01	0	0
1524766	2.209000e+00	1.171527e+02	-4.900161e+01	0	0
1526719	2.209000e+00	1.318756e+02	-9.609820e+00	0	0
1528672	2.209000e+00	1.301675e+02	1.691045e+00	0	0
1530625	2.209000e+00	1.123048e+02	-1.413546e+01	0	0
1532578	2.209000e+00	9.742135e+01	7.682629e+01	0	0
1534531	2.209000e+00	1.072749e+02	1.100870e+02	0	0
1536484	2.209000e+00	1.082319e+02	1.525443e+01	0	0
1538438	2.209000e+00	1.080135e+02	-4.185219e+00	0	0
1540391	2.209000e+00	8.228399e+01	-2.161216e+01	0	0
1542344	2.209000e+00	4.627926e+01	-9.933977e+01	0	0
1544297	2.209000e+00	1.771202e+01	-9.683090e+01	0	0
1546250	2.209000e+00	-6.918532e+00	-1.522894e+01	0	0
1548203	2.209000e+00	-4.120227e+01	3.620753e+00	0	0
1550156	2.209000e+00	-4.804131e+01	-4.548619e-01	0	0
1552109	2.209000e+00	-6.498178e+01	2.365581e+01	0	0
1554063	2.209000e+00	-6.562255e+01	1.140975e+02	0	0
1556016	2.209000e+00	-6.928853e+01	2.964189e+01	0	0
1557969	2.209000e+00	-8.060197e+01	-1.055137e+01	0	0
1559922	2.209000e+00	-1.065462e+02	9.982315e+00	0	0
1561875	2.209000e+00	-1.188515e+02	-9.634979e+01	0	0
1563828	2.209000e+00	-1.523238e+02	-7.291458e+01	0	0
1565781	2.209000e+00	-1.508273e+02	-7.102766e+00	0	0
1567734	2.209000e+00	-1.531542e+02	-2.470523e+00	0	0
1569688	2.209000e+00	-1.827317e+02	-2.625329e+00	0	0
1571641	2.209000e+00	-1.810123e+02	-2.980838e+00	0	0
1573594	2.209000e+00	-1.756681e+02	8.624523e+01	0	0
1575547	2.209000e+00	-1.865446e+02	5.630261e+01	0	0
1577500	2.209000e+00	-1.874223e+02	-2.288149e+00	0	0
1579453	2.209000e+00	-1.903361e+02	7.941204e+00	0	0
1581406	2.209000e+00	-1.974158e+02	-7.972983e+01	0	0
1583359	2.209000e+00	-2.010742e+02	-8.821427e+01	0	0
1585313	2.209000e+00	-2.041000e+02	-3.598309e+01	0	0
1587266	2.209000e+00	-2.020297e+02	-5.117769e+00	0	0
1589219	2.209000e+00	-2.055682e+02	3.144401e+00	0	0
1591172	2.209000e+00	-2.128369e+02	-1.118458e+01	0	0
1593125	2.209000e+00	-1.939872e+02	8.028192e+01	0	0
1595078	2.209000e+00	-1.604009e+02	7.155217e+01	0	0
1597031	2.209000e+00	-2.035043e+02	5.905754e+00	0	0
1598984	2.209000e+00	-2.108194e+02	1.057711e+01	0	0
1600938	2.209000e+00	-1.810421e+02	-7.415656e+01	0	0
1602891	2.209000e+00	-1.886232e+02	-9.500937e+01	0	0
1604844	2.209000e+00	-2.247171e+02	-6.552487e+01	0	0
1606797	2.209000e+00	-2.169281e+02	-8.210346e+00	0	0
1608750	2.209000e+00	-2.071641e+02	9.442973e+00	0	0
1610703	2.209000e+00	-2.214776e+02	-6.649489e+00	0	0
1612656	2.209000e+00	-2.268967e+02	8.391172e+01	0	0
1614609	2.209000e+00	-2.124115e+02	1.028715e+02	0	0
1616563	2.208247e+00	-2.025383e+02	1.639914e+01	0	0
1618516	2.208753e+00	-1.860554e+02	4.177131e+00	0	0
1620469	2.209000e+00	-1.868798e+02	-4.558009e+01	0	0
1622422	2.209000e+00	-2.039991e+02	-1.020004e+02	0	0
1624375	2.209000e+00	-1.996043e+02	-9.166702e+01	0	0
1626328	2.209000e+00	-1.957203e+02	-9.906023e+00	0	0
1628281	2.209000e+00	-2.282643e+02	1.101531e+01	0	0
1630234	2.209000e+00	-2.720501e+02	6.435398e+00	0	0
1632188	2.209000e+00	-2.952586e+02	2.525385e+01	0	0
1634141	2.209000e+00	-3.126038e+02	1.137838e+02	0	0
1636094	2.209000e+00	-2.853249e+02	3.193080e+01	0	0
1638047	2.209000e+00	-2.295171e+02	-8.453377e+00	0	0
1640000	2.209000e+00	-1.807892e+02	6.025732e+00	0	0
1641953	2.209000e+00	-1.075607e+02	-9.484106e+01	0	0
1643906	2.209000e+00	-3.831321e+01	-6.860838e+01	0	0
1645859	2.209000e+00	6.318835e+01	-1.369980e+01	0	0
1647813	2.209000e+00	2.022494e+02	-1.205556e+01	0	0
1649766	2.209000e+00	4.247159e+02	-1.164142e+01	0	0
1651719	2.209000e+00	7.240068e+02	-5.750973e+00	0	0
1653672	2.208245e+00	9.514469e+02	8.325471e+01	0	0
1655625	2.208000e+00	1.225678e+03	4.601908e+01	0	0
1657578	2.208000e+00	1.491986e+03	-4.223348e+00	0	0
1659531	2.208000e+00	1.709168e+03	8.041130e+00	0	0
1661484	2.208000e+00	1.812569e+03	-7.268272e+01	0	0
1663438	2.208000e+00	1.736398e+03	-8.876067e+01	0	0
1665391	2.208000e+00	1.558571e+03	-5.410832e+01	0	0
1667344	2.208756e+00	1.203193e+03	-3.634975e+00	0	0
1669297	2.209000e+00	9.232357e+02	1.121282e+01	0	0
1671250	2.209000e+00	7.208097e+02	-5.543534e+00	0	0
1673203	2.208244e+00	5.525410e+02	8.379275e+01	0	0
1675156	2.208000e+00	2.926660e+02	5.969676e+01	0	0
1677109	2.208000e+00	-1.045472e+02	8.351089e-01	0	0
1679063	2.208000e+00	-3.128895e+02	9.611249e+00	0	0
1681016	2.208000e+00	-3.791260e+02	-7.655365e+01	0	0
1682969	2.208757e+00	-3.805692e+02	-8.779469e+01	0	0
1684922	2.209000e+00	-3.408104e+02	-5.973208e+01	0	0
1686875	2.209000e+00	-3.094878e+02	-7.598395e+00	0	0
1688828	2.209000e+00	-2.691856e+02	9.118619e+00	0	0
1690781	2.208243e+00	-2.353203e+02	-5.058412e+00	0	0
1692734	2.208000e+00	-1.946337e+02	8.088850e+01	0	0
1694688	2.208000e+00	-1.616817e+02	1.243427e+02	0	0
1696641	2.208000e+00	-1.528985e+02	2.328204e+01	0	0
1698594	2.208000e+00	-1.343314e+02	3.283981e+00	0	0
1700547	2.208000e+00	-1.277787e+02	-4.159171e+01	0	0
1702500	2.208000e+00	-1.255909e+02	-1.052607e+02	0	0
1704453	2.208000e+00	-1.342082e+02	-8.693644e+01	0	0
1706406	2.208000e+00	-1.486098e+02	-1.239687e+01	0	0
1708359	2.208758e+00	-1.659061e+02	3.599112e+00	0	0
1710313	2.208242e+00	-1.536644e+02	-2.483389e+00	0	0
1712266	2.208758e+00	-1.570647e+02	3.220108e+01	0	0
1714219	2.209000e+00	-1.627502e+02	1.180375e+02	0	0
1716172	2.208242e+00	-1.545636e+02	2.686795e+01	0	0
1718125	2.208000e+00	-1.587581e+02	-1.277616e+01	0	0
1720078	2.208000e+00	-1.464426e+02	1.028177e+01	0	0
1722031	2.208759e+00	-1.445093e+02	-1.014546e+02	0	0
1723984	2.208241e+00	-1.593876e+02	-8.535127e+01	0	0
1725938	2.208000e+00	-1.587506e+02	-1.493302e+01	0	0
1727891	2.208000e+00	-1.519928e+02	-5.915788e+00	0	0
1729844	2.208759e+00	-1.629142e+02	-6.298490e+00	0	0
1731797	2.209000e+00	-1.434797e+02	1.647131e+01	0	0
1733750	2.208241e+00	-1.316647e+02	9.858281e+01	0	0
1735703	2.208000e+00	-1.451239e+02	3.732619e+01	0	0
1737656	2.208000e+00	-1.355078e+02	-5.269117e+00	0	0
1739609	2.208000e+00	-1.254433e+02	1.246172e+01	0	0
1741563	2.208000e+00	-1.200325e+02	-7.905143e+01	0	0
1743516	2.208760e+00	-1.287633e+02	-9.023828e+01	0	0
1745469	2.209000e+00	-1.314612e+02	-4.883120e+01	0	0
1747422	2.209000e+00	-1.407448e+02	-8.028310e+00	0	0
1749375	2.208240e+00	-1.326361e+02	4.655539e+00	0	0
1751328	2.208000e+00	-1.267750e+02	-9.325679e+00	0	0
1753281	2.208000e+00	-1.141945e+02	8.360163e+01	0	0
1755234	2.208760e+00	-1.038644e+02	7.609164e+01	0	0
1757188	2.208239e+00	-1.063886e+02	5.444557e+00	0	0
1759141	2.208000e+00	-8.422756e+01	8.190192e+00	0	0
1761094	2.208000e+00	-8.451702e+01	-8.042947e+01	0	0
1763047	2.208000e+00	-8.969569e+01	-8.951034e+01	0	0
1765000	2.208761e+00	-9.241511e+01	-5.058896e+01	0	0
1766953	2.208239e+00	-9.838641e+01	-8.106552e+00	0	0
1768906	2.208761e+00	-7.828064e+01	4.745650e+00	0	0
1770859	2.208239e+00	-9.604601e+01	-1.065499e+01	0	0
1772813	2.208000e+00	-6.871866e+01	8.454593e+01	0	0
1774766	2.208762e+00	-6.704442e+01	8.764984e+01	0	0
1776719	2.208238e+00	-9.898438e+01	9.059550e+00	0	0
1778672	2.208762e+00	-8.179385e+01	3.803420e+00	0	0
1780625	2.208238e+00	-9.598214e+01	-5.629081e+01	0	0
1782578	2.208762e+00	-9.200642e+01	-1.070906e+02	0	0
1784531	2.209000e+00	-7.680513e+01	-8.081893e+01	0	0
1786484	2.209000e+00	-7.310776e+01	-1.022469e+01	0	0
1788438	2.208237e+00	-8.347655e+01	4.763986e+00	0	0
1790391	2.208763e+00	-7.769310e+01	-3.593843e+00	0	0
1792344	2.209000e+00	-5.158344e+01	4.277351e+01	0	0
1794297	2.209000e+00	-5.822320e+01	1.151434e+02	0	0
1796250	2.209000e+00	-5.468788e+01	2.576277e+01	0	0
1798203	2.209000e+00	-5.528355e+01	-5.998400e+00	0	0
1800156	2.208237e+00	-4.919628e+01	2.524197e+00	0	0
1802109	2.208763e+00	-1.814402e+01	-9.273313e+01	0	0
1804063	2.209000e+00	-4.670097e+01	-8.208394e+01	0	0
1806016	2.209000e+00	-4.317607e+01	-8.207799e+00	0	0
1807969	2.209000e+00	-1.852512e+01	2.945863e+00	0	0
1809922	2.209000e+00	-1.171072e+01	2.481621e+00	0	0
1811875	2.209000e+00	-2.334660e+01	1.727702e-01	0	0
1813828	2.209000e+00	-2.009033e+01	9.635119e+01	0	0
1815781	2.209000e+00	-5.805196e+00	3.170663e+01	0	0
1817734	2.209000e+00	-5.924628e+00	-6.541671e+00	0	0
1819688	2.209000e+00	7.479998e+00	9.452851e+00	0	0
1821641	2.209000e+00	9.833330e+00	-8.196484e+01	0	0
1823594	2.209000e+00	1.064362e+01	-8.465516e+01	0	0
1825547	2.209000e+00	1.780829e+01	-3.916269e+01	0	0
1827500	2.209000e+00	9.061328e+00	-5.284957e+00	0	0
1829453	2.209000e+00	1.797499e+01	4.359627e+00	0	0
1831406	2.209000e+00	7.424102e+00	-1.002439e+01	0	0
1833359	2.209000e+00	2.929880e+01	8.207138e+01	0	0
1835313	2.209000e+00	3.968241e+01	6.894010e+01	0	0
1837266	2.209000e+00	5.161909e+01	3.778622e+00	0	0
1839219	2.209000e+00	6.938223e+01	8.330908e+00	0	0
1841172	2.209000e+00	7.257969e+01	-7.799443e+01	0	0
1843125	2.209000e+00	6.721108e+01	-9.094767e+01	0	0
1845078	2.209000e+00	7.089190e+01	-4.571331e+01	0	0
1847031	2.209000e+00	7.373943e+01	-6.846035e+00	0	0
1848984	2.209000e+00	6.127573e+01	3.077448e+00	0	0
1850938	2.209000e+00	6.214378e+01	-9.202063e+00	0	0
1852891	2.209000e+00	9.908234e+01	7.643108e+01	0	0
1854844	2.209000e+00	1.372948e+02	1.101038e+02	0	0
1856797	2.209000e+00	1.429492e+02	1.625507e+01	0	0
1858750	2.209000e+00	1.696828e+02	5.402545e+00	0	0
1860703	2.209000e+00	1.740175e+02	-7.398256e+01	0	0
1862656	2.209000e+00	1.800779e+02	-1.058291e+02	0	0
1864609	2.209000e+00	1.751448e+02	-8.443324e+01	0	0
1866563	2.209000e+00	1.945806e+02	-1.059241e+01	0	0
1868516	2.209000e+00	1.818297e+02	7.879546e+00	0	0
1870469	2.209000e+00	1.778328e+02	-2.803909e+00	0	0
1872422	2.209000e+00	1.943004e+02	4.063090e+01	0	0
1874375	2.209000e+00	2.280023e+02	1.117020e+02	0	0
1876328	2.209000e+00	2.435490e+02	2.415645e+01	0	0
1878281	2.209000e+00	2.572569e+02	-9.262209e+00	0	0
1880234	2.209000e+00	2.770626e+02	9.431562e+00	0	0
1882188	2.209000e+00	2.762844e+02	-9.880353e+01	0	0
1884141	2.209000e+00	2.827179e+02	-8.085531e+01	0	0
1886094	2.209000e+00	2.868900e+02	-1.209811e+01	0	0
1888047	2.209768e+00	3.095662e+02	-2.757595e+00	0	0
1890000	2.209232e+00	3.277852e+02	-3.490219e+00	0	0
1891953	2.209768e+00	3.304409e+02	3.712164e+00	0	0
1893906	2.210000e+00	3.189976e+02	9.451516e+01	0	0
1895859	2.210000e+00	3.339876e+02	2.968188e+01	0	0
1897813	2.210000e+00	3.657221e+02	-7.828491e+00	0	0
1899766	2.210000e+00	3.831187e+02	1.239102e+01	0	0
1901719	2.210000e+00	3.831242e+02	-8.324604e+01	0	0
1903672	2.210000e+00	3.996022e+02	-7.841269e+01	0	0
1905625	2.210000e+00	3.929598e+02	-3.024360e+01	0	0
1907578	2.210000e+00	3.918600e+02	-3.920149e+00	0	0
1909531	2.210000e+00	4.047924e+02	4.001967e+00	0	0
1911484	2.210000e+00	4.018631e+02	-9.848333e+00	0	0
1913438	2.210000e+00	4.022333e+02	8.281320e+01	0	0
1915391	2.210000e+00	4.233560e+02	6.924386e+01	0	0
1917344	2.210000e+00	4.413123e+02	3.516285e+00	0	0
1919297	2.210000e+00	4.207889e+02	6.635233e+00	0	0
1921250	2.210000e+00	4.085081e+02	-8.292315e+01	0	0
1923203	2.210000e+00	4.029270e+02	-8.153057e+01	0	0
1925156	2.210000e+00	3.718961e+02	-3.976691e+01	0	0
1927109	2.210000e+00	3.346194e+02	-6.458383e+00	0	0
1929063	2.210000e+00	3.227961e+02	5.260301e+00	0	0
1931016	2.210000e+00	3.057878e+02	-5.967829e+00	0	0
1932969	2.210000e+00	2.914564e+02	8.505105e+01	0	0
1934922	2.210000e+00	2.767469e+02	7.818524e+01	0	0
1936875	2.210000e+00	2.555920e+02	9.633813e+00	0	0
1938828	2.210000e+00	2.392699e+02	1.177854e+01	0	0
1940781	2.210000e+00	2.015168e+02	-7.355972e+01	0	0
1942734	2.210000e+00	1.702502e+02	-9.519120e+01	0	0
1944688	2.210000e+00	1.585923e+02	-7.559400e+01	0	0
1946641	2.210000e+00	9.684450e+01	-5.417308e+00	0	0
1948594	2.210772e+00	9.573277e+01	1.076136e+01	0	0
1950547	2.211000e+00	8.334532e+01	-3.920851e+00	0	0
1952500	2.211000e+00	3.881870e+01	5.079162e+01	0	0
1954453	2.211000e+00	2.891453e+01	1.156854e+02	0	0
1956406	2.211000e+00	8.445123e+00	2.297105e+01	0	0
1958359	2.211000e+00	-6.367629e+00	-9.543355e+00	0	0
1960313	2.211000e+00	-2.250603e+01	3.727080e+00	0	0
1962266	2.211000e+00	-4.950448e+01	-1.024654e+02	0	0
1964219	2.211000e+00	-6.886886e+01	-8.314161e+01	0	0
1966172	2.211000e+00	-7.643749e+01	-1.243933e+01	0	0
1968125	2.211000e+00	-9.326380e+01	-2.395325e+00	0	0
1970078	2.211000e+00	-9.865395e+01	-3.180006e+00	0	0
1972031	2.211000e+00	-1.142539e+02	3.539567e+00	0	0
1973984	2.211000e+00	-1.028053e+02	9.500406e+01	0	0
1975938	2.211000e+00	-9.066218e+01	3.434647e+01	0	0
1977891	2.211000e+00	-1.169270e+02	-3.835733e+00	0	0
1979844	2.211000e+00	-8.527036e+01	1.148854e+01	0	0
1981797	2.211000e+00	-1.117218e+02	-8.424095e+01	0	0
1983750	2.211000e+00	-1.294861e+02	-7.040899e+01	0	0
1985703	2.211000e+00	-1.246712e+02	-2.287672e+01	0	0
1987656	2.211000e+00	-1.575466e+02	-3.376460e+00	0	0
1989609	2.211000e+00	-1.432516e+02	3.190659e+00	0	0
1991563	2.211774e+00	-1.487907e+02	-1.065549e+01	0	0
1993516	2.212000e+00	-1.303049e+02	7.668354e+01	0	0
1995469	2.212000e+00	-1.392518e+02	6.708408e+01	0	0
1997422	2.212000e+00	-1.244224e+02	2.844512e+00	0	0
1999375	2.212000e+00	-1.153142e+02	6.652243e+00	0	0
2001328	2.212000e+00	-1.025519e+02	-7.624852e+01	0	0
2003281	2.212000e+00	-1.334386e+02	-8.763111e+01	0	0
2005234	2.212000e+00	-1.524686e+02	-5.540310e+01	0	0
2007188	2.212000e+00	-1.478756e+02	-7.320449e+00	0	0
2009141	2.212000e+00	-1.456227e+02	5.920269e+00	0	0
2011094	2.212000e+00	-1.474609e+02	-8.485240e+00	0	0
2013047	2.212000e+00	-1.418426e+02	7.941260e+01	0	0
2015000	2.212000e+00	-1.190677e+02	8.179608e+01	0	0
2016953	2.212000e+00	-1.141798e+02	6.997274e+00	0	0
2018906	2.212000e+00	-1.157947e+02	7.026771e+00	0	0
2020859	2.212000e+00	-1.256641e+02	-8.131435e+01	0	0
2022813	2.212000e+00	-1.236683e+02	-9.962328e+01	0	0
2024766	2.212000e+00	-1.281330e+02	-7.904715e+01	0	0
2026719	2.212776e+00	-1.486005e+02	-7.675567e+00	0	0
2028672	2.212224e+00	-1.465314e+02	1.059516e+01	0	0
2030625	2.212776e+00	-1.563206e+02	-3.527680e+00	0	0
2032578	2.213000e+00	-1.425902e+02	6.068816e+01	0	0
2034531	2.213000e+00	-1.305425e+02	1.214870e+02	0	0
2036484	2.213000e+00	-1.428534e+02	2.225217e+01	0	0
2038438	2.213000e+00	-1.268822e+02	-7.081968e+00	0	0
2040391	2.213000e+00	-1.189491e+02	-8.169867e+00	0	0
2042344	2.213000e+00	-1.176367e+02	-1.093919e+02	0	0
2044297	2.213000e+00	-1.303803e+02	-8.284066e+01	0	0
2046250	2.213000e+00	-1.232335e+02	-1.250683e+01	0	0
2048203	2.213000e+00	-1.531003e+02	-1.119782e+00	0	0
2050156	2.213000e+00	-1.469079e+02	-1.168822e+00	0	0
2052109	2.213000e+00	-1.356787e+02	1.331859e+01	0	0
2054063	2.213000e+00	-1.244940e+02	1.040640e+02	0	0
2056016	2.213000e+00	-1.155598e+02	2.581208e+01	0	0
2057969	2.213778e+00	-9.488715e+01	-3.719462e+00	0	0
2059922	2.214000e+00	-1.127678e+02	1.331457e+01	0	0
2061875	2.213222e+00	-1.277813e+02	-8.207542e+01	0	0
2063828	2.213778e+00	-1.383780e+02	-7.600875e+01	0	0
2065781	2.214000e+00	-1.719738e+02	-3.039596e+01	0	0
2067734	2.214000e+00	-2.135629e+02	-4.091098e+00	0	0
2069688	2.214000e+00	-1.984466e+02	3.509414e+00	0	0
2071641	2.214000e+00	-1.630516e+02	-9.584121e+00	0	0
2073594	2.214000e+00	-1.287943e+02	7.938512e+01	0	0
2075547	2.214000e+00	-1.147526e+02	5.980474e+01	0	0
2077500	2.214000e+00	-1.094374e+02	1.951436e+00	0	0
2079453	2.214000e+00	-8.475834e+01	7.756728e+00	0	0
2081406	2.214000e+00	-9.490330e+01	-7.345515e+01	0	0
2083359	2.214000e+00	-9.173529e+01	-8.924733e+01	0	0
2085313	2.214780e+00	-1.007703e+02	-3.506053e+01	0	0
2087266	2.215000e+00	-1.005103e+02	-3.987668e+00	0	0
2089219	2.215000e+00	-9.617554e+01	2.015755e+00	0	0
2091172	2.215000e+00	-9.791042e+01	-9.149646e+00	0	0
2093125	2.215000e+00	-8.527701e+01	7.483031e+01	0	0
2095078	2.215000e+00	-9.244725e+01	7.824810e+01	0	0
2097031	2.215000e+00	-1.064127e+02	7.062795e+00	0	0
2098984	2.215000e+00	-8.408286e+01	5.886354e+00	0	0
2100938	2.215000e+00	-1.084464e+02	-7.175273e+01	0	0
2102891	2.215000e+00	-9.999590e+01	-9.795092e+01	0	0
2104844	2.215000e+00	-9.385162e+01	-7.547207e+01	0	0
2106797	2.215000e+00	-1.033984e+02	-1.049414e+01	0	0
2108750	2.215000e+00	-9.884440e+01	4.826622e+00	0	0
2110703	2.215781e+00	-1.366194e+02	-7.069291e+00	0	0
2112656	2.216000e+00	-1.490396e+02	6.373291e+01	0	0
2114609	2.216000e+00	-1.303822e+02	1.126740e+02	0	0
2116563	2.216000e+00	-1.184623e+02	1.946262e+01	0	0
2118516	2.216000e+00	-9.246008e+01	-6.437890e+00	0	0
2120469	2.216000e+00	-8.829568e+01	4.400977e+00	0	0
2122422	2.216000e+00	-1.078075e+02	-9.110688e+01	0	0
2124375	2.216000e+00	-8.959221e+01	-9.109684e+01	0	0
2126328	2.216000e+00	-8.677063e+01	-1.067377e+01	0	0
2128281	2.216000e+00	-1.053213e+02	2.831473e+00	0	0
2130234	2.216000e+00	-1.218869e+02	-6.567129e-01	0	0
2132188	2.216782e+00	-1.128442e+02	1.469043e+01	0	0
2134141	2.217000e+00	-9.983739e+01	1.051853e+02	0	0
2136094	2.217000e+00	-1.028049e+02	2.403688e+01	0	0
2138047	2.217000e+00	-8.645989e+01	-7.485054e+00	0	0
2140000	2.217000e+00	-1.016632e+02	7.610420e+00	0	0
2141953	2.217000e+00	-9.409872e+01	-9.013465e+01	0	0
2143906	2.217000e+00	-9.584627e+01	-7.330429e+01	0	0
2145859	2.217000e+00	-1.095985e+02	-8.061150e+00	0	0
2147813	2.217000e+00	-1.233301e+02	1.273754e+00	0	0
2149766	2.217000e+00	-1.295699e+02	3.190462e+00	0	0
2151719	2.217783e+00	-1.317620e+02	-8.712423e+00	0	0
2153672	2.218000e+00	-1.177911e+02	8.319584e+01	0	0
2155625	2.218000e+00	-1.167360e+02	6.466577e+01	0	0
2157578	2.218000e+00	-1.044621e+02	3.157184e+00	0	0
2159531	2.218000e+00	-1.139658e+02	8.859845e+00	0	0
2161484	2.218000e+00	-1.170611e+02	-7.725133e+01	0	0
2163438	2.218000e+00	-1.201164e+02	-7.700319e+01	0	0
2165391	2.218000e+00	-1.249879e+02	-3.487449e+01	0	0
2167344	2.218000e+00	-1.209386e+02	-3.069535e+00	0	0
2169297	2.218000e+00	-1.426867e+02	5.599540e+00	0	0
2171250	2.218784e+00	-1.350905e+02	-7.525606e+00	0	0
2173203	2.219000e+00	-1.508745e+02	8.203365e+01	0	0
2175156	2.219000e+00	-1.234349e+02	6.781715e+01	0	0
2177109	2.219000e+00	-1.279031e+02	5.004613e+00	0	0
2179063	2.219000e+00	-1.156494e+02	9.606452e+00	0	0
2181016	2.219000e+00	-1.116996e+02	-7.812704e+01	0	0
2182969	2.219000e+00	-1.210257e+02	-8.770489e+01	0	0
2184922	2.219000e+00	-1.211246e+02	-6.725669e+01	0	0
2186875	2.219785e+00	-1.251827e+02	-9.491583e+00	0	0
2188828	2.220000e+00	-1.322341e+02	6.135526e+00	0	0
2190781	2.220000e+00	-1.256136e+02	-4.948840e+00	0	0
2192734	2.220000e+00	-1.246649e+02	6.576218e+01	0	0
2194688	2.220000e+00	-1.154603e+02	1.172248e+02	0	0
2196641	2.220000e+00	-1.151227e+02	2.111459e+01	0	0
2198594	2.220000e+00	-1.265233e+02	-1.649044e+00	0	0
2200547	2.220000e+00	-1.077931e+02	-1.438120e+01	0	0
2202500	2.220000e+00	-1.320440e+02	-9.647501e+01	0	0
2204453	2.220786e+00	-1.343014e+02	-8.258122e+01	0	0
2206406	2.221000e+00	-1.328838e+02	-8.583102e+00	0	0
2208359	2.221000e+00	-1.274617e+02	2.251172e+00	0	0
2210313	2.221000e+00	-1.297916e+02	3.488676e-01	0	0
2212266	2.221000e+00	-1.299498e+02	6.802306e+00	0	0
2214219	2.221000e+00	-9.321418e+01	1.031648e+02	0	0
2216172	2.221000e+00	-7.959630e+01	2.406601e+01	0	0
2218125	2.221000e+00	-6.789395e+01	-7.518252e+00	0	0
2220078	2.221000e+00	-2.145114e+01	3.638214e+00	0	0
2222031	2.221787e+00	-1.295664e+01	-9.307578e+01	0	0
2223984	2.222000e+00	-6.911306e+00	-6.184393e+01	0	0
2225938	2.222000e+00	6.802985e+00	-5.241731e+00	0	0
2227891	2.222000e+00	1.512413e+01	-2.664826e+00	0	0
2229844	2.222000e+00	4.651801e+00	-1.297180e+00	0	0
2231797	2.222000e+00	1.980807e+01	-1.205705e+01	0	0
2233750	2.222000e+00	3.976324e+01	7.707560e+01	0	0
2235703	2.222788e+00	3.472048e+01	6.172775e+01	0	0
2237656	2.223000e+00	4.727138e+01	1.738934e+00	0	0
2239609	2.223000e+00	5.844190e+01	6.073686e+00	0	0
2241563	2.223000e+00	8.088797e+01	-7.491356e+01	0	0
2243516	2.223000e+00	9.529523e+01	-8.756032e+01	0	0
2245469	2.223000e+00	1.089923e+02	-4.075536e+01	0	0
2247422	2.223000e+00	1.147180e+02	-5.855645e+00	0	0
2249375	2.223789e+00	9.769679e+01	1.420485e+00	0	0
2251328	2.224000e+00	9.151097e+01	-9.580130e+00	0	0
2253281	2.224000e+00	1.026941e+02	7.569399e+01	0	0
2255234	2.224000e+00	1.414489e+02	7.396927e+01	0	0
2257188	2.224000e+00	1.714744e+02	6.748813e+00	0	0
2259141	2.224000e+00	1.323302e+02	7.900328e+00	0	0
2261094	2.224000e+00	1.652186e+02	-7.417668e+01	0	0
2263047	2.224000e+00	1.651607e+02	-9.159544e+01	0	0
2265000	2.224000e+00	1.513955e+02	-6.630935e+01	0	0
2266953	2.224790e+00	1.381739e+02	-9.154806e+00	0	0
2268906	2.225000e+00	1.256555e+02	5.224407e+00	0	0
2270859	2.225000e+00	1.271337e+02	-8.286227e+00	0	0
2272813	2.225000e+00	1.101609e+02	8.005303e+01	0	0
2274766	2.225000e+00	1.093799e+02	1.157570e+02	0	0
2276719	2.225000e+00	1.092474e+02	1.640085e+01	0	0
2278672	2.225790e+00	1.056524e+02	-6.173899e-01	0	0
2280625	2.226000e+00	8.112281e+01	-3.504761e+01	0	0
2282578	2.226000e+00	3.869190e+01	-1.016151e+02	0	0
2284531	2.226000e+00	4.162489e+00	-9.118390e+01	0	0
2286484	2.226000e+00	-1.458419e+01	-1.259997e+01	0	0
2288438	2.226000e+00	-5.505322e+01	1.724993e+00	0	0
2290391	2.226791e+00	-4.663315e+01	-2.210607e+00	0	0
2292344	2.227000e+00	-6.422031e+01	1.914688e+01	0	0
2294297	2.227000e+00	-1.009758e+02	1.115323e+02	0	0
2296250	2.227000e+00	-1.178819e+02	2.265089e+01	0	0
2298203	2.227000e+00	-1.263263e+02	-8.432551e+00	0	0
2300156	2.227000e+00	-1.364510e+02	3.310999e+00	0	0
2302109	2.227791e+00	-1.260455e+02	-9.981908e+01	0	0
2304063	2.228000e+00	-1.153019e+02	-7.169474e+01	0	0
2306016	2.228000e+00	-1.249264e+02	-7.559165e+00	0	0
2307969	2.228000e+00	-1.456356e+02	-2.268963e+00	0	0
2309922	2.228000e+00	-1.560403e+02	-3.762179e+00	0	0
2311875	2.228000e+00	-1.408100e+02	1.366884e+01	0	0
2313828	2.228000e+00	-1.475146e+02	9.621116e+01	0	0
2315781	2.228000e+00	-1.494746e+02	6.231670e+01	0	0
2317734	2.228792e+00	-1.517843e+02	1.578944e+00	0	0
2319688	2.229000e+00	-1.550104e+02	8.392031e+00	0	0
2321641	2.229000e+00	-1.373050e+02	-8.368174e+01	0	0
2323594	2.229000e+00	-1.555584e+02	-9.162428e+01	0	0
2325547	2.229000e+00	-1.616164e+02	-4.438158e+01	0	0
2327500	2.229793e+00	-1.643958e+02	-3.938838e+00	0	0
2329453	2.230000e+00	-1.790308e+02	4.634649e+00	0	0
2331406	2.230000e+00	-1.964885e+02	-1.005285e+01	0	0
2333359	2.230000e+00	-1.780419e+02	8.814214e+01	0	0
2335313	2.230000e+00	-1.440806e+02	7.886023e+01	0	0
2337266	2.230000e+00	-1.553790e+02	4.697706e+00	0	0
2339219	2.230000e+00	-1.659725e+02	8.114024e+00	0	0
2341172	2.230794e+00	-1.947435e+02	-8.965656e+01	0	0
2343125	2.231000e+00	-1.813027e+02	-8.667710e+01	0	0
2345078	2.231000e+00	-1.884790e+02	-5.020646e+01	0	0
2347031	2.231000e+00	-1.913680e+02	-7.499802e+00	0	0
2348984	2.231000e+00	-1.872695e+02	4.200748e+00	0	0
2350938	2.231795e+00	-1.972362e+02	-9.672058e+00	0	0
2352891	2.232000e+00	-1.866547e+02	8.929830e+01	0	0
2354844	2.232000e+00	-2.066597e+02	1.137999e+02	0	0
2356797	2.232000e+00	-1.881319e+02	1.400063e+01	0	0
2358750	2.232000e+00	-1.708626e+02	-7.979662e-02	0	0
2360703	2.232000e+00	-1.673517e+02	-4.166456e+01	0	0
2362656	2.232795e+00	-1.566482e+02	-1.049314e+02	0	0
2364609	2.233000e+00	-1.436273e+02	-8.741142e+01	0	0
2366563	2.233000e+00	-2.019885e+02	-1.052593e+01	0	0
2368516	2.233000e+00	-2.581363e+02	2.941993e+00	0	0
2370469	2.233000e+00	-2.722388e+02	-1.870437e+00	0	0
2372422	2.233796e+00	-2.658516e+02	2.433588e+01	0	0
2374375	2.234000e+00	-2.382660e+02	1.071982e+02	0	0
2376328	2.234000e+00	-1.691251e+02	2.133357e+01	0	0
2378281	2.234000e+00	-9.841134e+01	-7.541001e+00	0	0
2380234	2.234000e+00	-2.156148e+01	7.769433e+00	0	0
2382188	2.234000e+00	7.949012e+01	-9.125268e+01	0	0
2384141	2.234797e+00	2.070311e+02	-7.386282e+01	0	0
2386094	2.235000e+00	4.541766e+02	-8.860597e+00	0	0
2388047	2.235000e+00	7.421265e+02	6.667765e-01	0	0
2390000	2.235000e+00	9.691947e+02	9.975459e-01	0	0
2391953	2.235000e+00	1.233343e+03	2.328727e+00	0	0
2393906	2.235797e+00	1.511273e+03	9.195116e+01	0	0
2395859	2.236000e+00	1.761822e+03	3.333675e+01	0	0
2397813	2.236000e+00	1.865547e+03	-4.565811e+00	0	0
2399766	2.236000e+00	1.802712e+03	9.454988e+00	0	0
2401719	2.236000e+00	1.635828e+03	-8.169864e+01	0	0
2403672	2.236798e+00	1.259513e+03	-8.708315e+01	0	0
2405625	2.237000e+00	1.002605e+03	-5.853865e+01	0	0
2407578	2.237000e+00	7.703934e+02	-8.352816e+00	0	0
2409531	2.237000e+00	5.894434e+02	4.664022e+00	0	0
2411484	2.237000e+00	2.938817e+02	-8.993970e+00	0	0
2413438	2.237798e+00	-1.028728e+02	8.173311e+01	0	0
2415391	2.238000e+00	-2.883756e+02	7.408961e+01	0	0
2417344	2.238000e+00	-3.372215e+02	5.394360e+00	0	0
2419297	2.238000e+00	-3.143085e+02	6.273545e+00	0	0
2421250	2.238000e+00	-2.880106e+02	-7.285675e+01	0	0
2423203	2.238798e+00	-2.532105e+02	-9.973604e+01	0	0
2425156	2.239000e+00	-1.951006e+02	-6.580069e+01	0	0
2427109	2.239000e+00	-1.681893e+02	-7.819156e+00	0	0
2429063	2.239000e+00	-1.444884e+02	4.735376e+00	0	0
2431016	2.239000e+00	-1.453840e+02	-7.570380e+00	0	0
2432969	2.239799e+00	-1.238796e+02	7.886005e+01	0	0
2434922	2.240000e+00	-1.050323e+02	9.827354e+01	0	0
2436875	2.240000e+00	-1.233559e+02	1.050139e+01	0	0
2438828	2.240000e+00	-9.980241e+01	2.851989e+00	0	0
2440781	2.240000e+00	-1.190247e+02	-4.869963e+01	0	0
2442734	2.240799e+00	-1.245586e+02	-9.589337e+01	0	0
2444688	2.241000e+00	-1.352359e+02	-9.012001e+01	0	0
2446641	2.241000e+00	-1.267392e+02	-1.140909e+01	0	0
2448594	2.241000e+00	-1.249483e+02	6.228522e+00	0	0
2450547	2.241800e+00	-1.370311e+02	4.897861e+00	0	0
2452500	2.242000e+00	-1.325674e+02	2.411816e+01	0	0
2454453	2.242000e+00	-1.155618e+02	1.122437e+02	0	0
2456406	2.242000e+00	-9.345133e+01	2.736224e+01	0	0
2458359	2.242000e+00	-1.093786e+02	-4.291553e+00	0	0
2460313	2.242801e+00	-9.487623e+01	1.310180e+00	0	0
2462266	2.243000e+00	-1.138441e+02	-9.474533e+01	0	0
2464219	2.243000e+00	-1.094385e+02	-5.053514e+01	0	0
2466172	2.243000e+00	-1.161293e+02	-6.422112e+00	0	0
2468125	2.243801e+00	-1.391177e+02	-8.071855e+00	0	0
2470078	2.244000e+00	-1.022412e+02	-1.031685e+01	0	0
2472031	2.244000e+00	-1.253027e+02	9.569524e+00	0	0
2473984	2.244000e+00	-1.014937e+02	8.570849e+01	0	0
2475938	2.244000e+00	-1.175751e+02	4.988230e+01	0	0
2477891	2.244000e+00	-9.351334e+01	-1.537782e-01	0	0
2479844	2.244802e+00	-8.808098e+01	7.345018e+00	0	0
2481797	2.245000e+00	-7.118642e+01	-7.557513e+01	0	0
2483750	2.245000e+00	-7.851115e+01	-8.396390e+01	0	0
2485703	2.245000e+00	-7.318825e+01	-4.877436e+01	0	0
2487656	2.245802e+00	-8.648830e+01	3.617877e-01	0	0
2489609	2.246000e+00	-8.425424e+01	1.054936e+01	0	0
2491563	2.246000e+00	-9.978371e+01	-6.652769e+00	0	0
2493516	2.246000e+00	-1.011288e+02	8.679910e+01	0	0
2495469	2.246803e+00	-7.428647e+01	7.427830e+01	0	0
2497422	2.247000e+00	-6.920585e+01	5.331069e+00	0	0
2499375	2.247000e+00	-6.399222e+01	7.705907e+00	0	0
2501328	2.247000e+00	-4.135807e+01	-8.631492e+01	0	0
2503281	2.247803e+00	-2.146345e+01	-1.005773e+02	0	0
2505234	2.248000e+00	-8.085921e+01	-6.090012e+01	0	0
2507188	2.248000e+00	-6.426414e+01	-9.452599e+00	0	0
2509141	2.248000e+00	-6.491886e+01	2.863486e+00	0	0
2511094	2.248804e+00	-6.711300e+01	-9.044421e+00	0	0
2513047	2.249000e+00	-5.822967e+01	8.742766e+01	0	0
2515000	2.249000e+00	-3.850439e+01	9.879723e+01	0	0
2516953	2.249000e+00	-2.996704e+01	1.225824e+01	0	0
2518906	2.249000e+00	8.234212e+00	6.542772e+00	0	0
2520859	2.249804e+00	3.069352e+00	-6.555552e+01	0	0
2522813	2.250000e+00	-1.497062e+01	-1.002136e+02	0	0
2524766	2.250000e+00	-4.002177e+01	-9.810934e+01	0	0
2526719	2.250805e+00	-1.077267e+01	-7.739031e+00	0	0
2528672	2.251000e+00	-2.795059e+01	1.184657e+01	0	0
2530625	2.251000e+00	-2.211358e+01	2.237434e+00	0	0
2532578	2.251000e+00	-1.597617e+01	4.349449e+01	0	0
2534531	2.251805e+00	-1.304170e+01	1.123916e+02	0	0
2536484	2.252000e+00	-5.168894e+00	1.970667e+01	0	0
2538438	2.252000e+00	1.211994e+01	-7.450623e+00	0	0
2540391	2.252000e+00	7.641627e+00	9.488471e+00	0	0
2542344	2.252000e+00	4.930947e+00	-1.002542e+02	0	0
2544297	2.252806e+00	2.248431e+01	-6.805333e+01	0	0
2546250	2.253000e+00	9.164408e+00	-1.121177e+01	0	0
2548203	2.253000e+00	4.714431e+00	-8.294064e+00	0	0
2550156	2.253806e+00	2.267692e+01	-8.414456e+00	0	0
2552109	2.254000e+00	8.269559e+00	4.640812e+00	0	0
2554063	2.254000e+00	1.010353e+01	9.474346e+01	0	0
2556016	2.254000e+00	3.335622e+01	4.464018e+01	0	0
2557969	2.254806e+00	2.606236e+01	-4.671438e+00	0	0
2559922	2.255000e+00	3.150196e+01	5.764826e+00	0	0
2561875	2.255000e+00	3.813424e+01	-9.012425e+01	0	0
2563828	2.255000e+00	6.020530e+01	-9.365140e+01	0	0
2565781	2.255807e+00	5.528147e+01	-4.308690e+01	0	0
2567734	2.256000e+00	6.645636e+01	-2.352829e+00	0	0
2569688	2.256000e+00	5.812271e+01	7.746042e+00	0	0
2571641	2.256000e+00	8.039823e+01	-4.586611e+00	0	0
2573594	2.256807e+00	7.758473e+01	9.424818e+01	0	0
2575547	2.257000e+00	1.150252e+02	7.244035e+01	0	0
2577500	2.257000e+00	1.066183e+02	5.463586e+00	0	0
2579453	2.257807e+00	1.245516e+02	8.187241e+00	0	0
2581406	2.258000e+00	1.460197e+02	-8.582655e+01	0	0
2583359	2.258000e+00	1.363160e+02	-8.979618e+01	0	0
2585313	2.258000e+00	1.260181e+02	-5.174145e+01	0	0
2587266	2.258808e+00	1.290983e+02	-7.562566e+00	0	0
2589219	2.259000e+00	1.498776e+02	-1.462464e-01	0	0
2591172	2.259000e+00	1.609538e+02	-1.368593e+01	0	0
2593125	2.259000e+00	1.544721e+02	7.868770e+01	0	0
2595078	2.259000e+00	1.749888e+02	9.972290e+01	0	0
2597031	2.259808e+00	2.197381e+02	1.116496e+01	0	0
2598984	2.260000e+00	2.211808e+02	7.969720e+00	0	0
2600938	2.260000e+00	2.441152e+02	-5.935030e+01	0	0
2602891	2.260000e+00	2.692479e+02	-1.000846e+02	0	0
2604844	2.260809e+00	2.689376e+02	-8.343801e+01	0	0
2606797	2.261000e+00	2.749370e+02	3.434195e-01	0	0
2608750	2.261809e+00	2.743243e+02	1.621278e+01	0	0
2610703	2.262000e+00	2.761903e+02	7.805265e+00	0	0
2612656	2.262000e+00	2.771737e+02	3.974312e+01	0	0
2614609	2.262000e+00	2.916361e+02	1.173558e+02	0	0
2616563	2.262810e+00	3.191773e+02	2.009327e+01	0	0
2618516	2.263000e+00	3.347942e+02	-8.945740e+00	0	0
2620469	2.263000e+00	3.447870e+02	9.842937e+00	0	0
2622422	2.263000e+00	3.408411e+02	-1.107973e+02	0	0
2624375	2.263810e+00	3.603285e+02	-8.303498e+01	0	0
2626328	2.264000e+00	3.622192e+02	-1.681848e+01	0	0
2628281	2.264000e+00	3.542739e+02	-1.049874e+01	0	0
2630234	2.264810e+00	3.613083e+02	-8.753262e+00	0	0
2632188	2.265000e+00	3.881862e+02	3.336267e+00	0	0
2634141	2.265000e+00	4.015166e+02	9.462816e+01	0	0
2636094	2.265000e+00	4.022077e+02	4.121152e+01	0	0
2638047	2.265811e+00	4.045669e+02	-4.138932e+00	0	0
2640000	2.266000e+00	4.200556e+02	7.517476e+00	0	0
2641953	2.266000e+00	4.122460e+02	-8.899104e+01	0	0
2643906	2.266811e+00	4.427162e+02	-8.368851e+01	0	0
2645859	2.267000e+00	4.586782e+02	-3.842085e+01	0	0
2647813	2.267000e+00	4.282768e+02	-1.858662e+00	0	0
2649766	2.267000e+00	4.234737e+02	7.435894e+00	0	0
2651719	2.267812e+00	4.362396e+02	-4.720510e+00	0	0
2653672	2.268000e+00	4.525610e+02	8.985907e+01	0	0
2655625	2.268000e+00	4.587193e+02	7.438838e+01	0	0
2657578	2.268812e+00	4.559471e+02	7.337475e+00	0	0
2659531	2.269000e+00	4.592753e+02	1.055066e+01	0	0
2661484	2.269000e+00	4.427406e+02	-8.004779e+01	0	0
2663438	2.269813e+00	3.900177e+02	-9.110966e+01	0	0
2665391	2.270000e+00	3.605173e+02	-5.898175e+01	0	0
2667344	2.270000e+00	3.547215e+02	-6.322037e+00	0	0
2669297	2.270000e+00	3.217353e+02	4.954987e+00	0	0
2671250	2.270813e+00	3.182785e+02	-8.879655e+00	0	0
2673203	2.271000e+00	2.951655e+02	8.500527e+01	0	0
2675156	2.271000e+00	2.557129e+02	8.477027e+01	0	0
2677109	2.271000e+00	2.359454e+02	6.353677e+00	0	0
2679063	2.271814e+00	2.097583e+02	5.965990e+00	0	0
2681016	2.272000e+00	1.740325e+02	-8.105163e+01	0	0
2682969	2.272000e+00	1.390569e+02	-1.058567e+02	0	0
2684922	2.272814e+00	1.192335e+02	-8.196962e+01	0	0
2686875	2.273000e+00	9.109198e+01	-6.488671e+00	0	0
2688828	2.273000e+00	7.264921e+01	7.182121e+00	0	0
2690781	2.273814e+00	6.846889e+01	-3.634344e+00	0	0
2692734	2.274000e+00	3.784197e+01	5.400759e+01	0	0
2694688	2.274000e+00	1.765718e+01	1.171451e+02	0	0
2696641	2.274815e+00	3.305456e+01	1.923901e+01	0	0
2698594	2.275000e+00	1.673022e+01	-7.247333e+00	0	0
2700547	2.275000e+00	5.630134e+00	7.914885e+00	0	0
2702500	2.275815e+00	-2.537465e+01	-1.027045e+02	0	0
2704453	2.276000e+00	-2.855400e+01	-8.832473e+01	0	0
2706406	2.276000e+00	-4.640609e+01	-1.129791e+01	0	0
2708359	2.276000e+00	-5.421565e+01	6.236448e-01	0	0
2710313	2.276816e+00	-3.429196e+01	-5.589389e-01	0	0
2712266	2.277000e+00	-5.201642e+01	1.637244e+01	0	0
2714219	2.277000e+00	-4.951577e+01	1.055786e+02	0	0
2716172	2.277816e+00	-3.583344e+01	1.970339e+01	0	0
2718125	2.278000e+00	-5.292909e+01	-2.486296e+00	0	0
2720078	2.278000e+00	-4.838721e+01	7.524411e+00	0	0
2722031	2.278816e+00	-6.585764e+01	-8.471807e+01	0	0
2723984	2.279000e+00	-6.015248e+01	-8.723926e+01	0	0
2725938	2.279000e+00	-5.391846e+01	-3.966236e+01	0	0
2727891	2.279817e+00	-9.106332e+01	-2.045599e+00	0	0
2729844	2.280000e+00	-8.120915e+01	3.642339e+00	0	0
2731797	2.280000e+00	-1.010135e+02	-9.214017e+00	0	0
2733750	2.280817e+00	-1.006825e+02	8.769246e+01	0	0
2735703	2.281000e+00	-8.251674e+01	6.826385e+01	0	0
2737656	2.281000e+00	-8.929917e+01	2.746305e+00	0	0
2739609	2.281000e+00	-9.771946e+01	7.072290e+00	0	0
2741563	2.281818e+00	-8.598853e+01	-8.420546e+01	0	0
2743516	2.282000e+00	-9.540232e+01	-8.574977e+01	0	0
2745469	2.282818e+00	-8.787036e+01	-4.383338e+01	0	0
2747422	2.283000e+00	-7.986567e+01	-9.569206e+00	0	0
2749375	2.283000e+00	-9.185436e+01	-2.690002e+00	0	0
2751328	2.283000e+00	-8.231802e+01	-1.304953e+01	0	0
2753281	2.283818e+00	-7.553454e+01	7.583261e+01	0	0
2755234	2.284000e+00	-7.737158e+01	1.000924e+02	0	0
2757188	2.284000e+00	-7.103768e+01	9.670685e+00	0	0
2759141	2.284819e+00	-6.222485e+01	4.908560e+00	0	0
2761094	2.285000e+00	-5.861359e+01	-8.263096e+01	0	0
2763047	2.285000e+00	-7.116553e+01	-1.022768e+02	0	0
2765000	2.285819e+00	-7.334011e+01	-7.397262e+01	0	0
2766953	2.286000e+00	-9.748424e+01	-5.851723e+00	0	0
2768906	2.286000e+00	-1.178618e+02	6.954093e+00	0	0
2770859	2.286819e+00	-1.149258e+02	-3.951753e+00	0	0
2772813	2.287000e+00	-1.002750e+02	6.174250e+01	0	0
2774766	2.287000e+00	-7.944525e+01	1.167569e+02	0	0
2776719	2.287000e+00	-9.492475e+01	1.702510e+01	0	0
2778672	2.287820e+00	-9.903071e+01	-6.718304e+00	0	0
2780625	2.288000e+00	-7.557432e+01	7.128333e+00	0	0
2782578	2.288820e+00	-8.677195e+01	-9.984383e+01	0	0
2784531	2.289000e+00	-9.213814e+01	-9.459869e+01	0	0
2786484	2.289000e+00	-7.152161e+01	-1.027739e+01	0	0
2788438	2.289821e+00	-8.777765e+01	5.993182e-01	0	0
2790391	2.290000e+00	-7.424282e+01	-1.884031e+00	0	0
2792344	2.290000e+00	-7.391448e+01	1.156156e+01	0	0
2794297	2.290821e+00	-8.165905e+01	1.074912e+02	0	0
2796250	2.291000e+00	-6.710987e+01	2.588786e+01	0	0
2798203	2.291000e+00	-5.803597e+01	-7.342321e+00	0	0
2800156	2.291821e+00	-5.864295e+01	9.624491e+00	0	0
2802109	2.292000e+00	-5.699226e+01	-9.727684e+01	0	0
2804063	2.292822e+00	-5.669243e+01	-7.226886e+01	0	0
2806016	2.293000e+00	-4.416177e+01	-2.168667e+01	0	0
2807969	2.293000e+00	-7.538677e+01	-2.374558e+00	0	0
2809922	2.293000e+00	-9.763921e+01	3.161695e+00	0	0
2811875	2.293822e+00	-5.072331e+01	-8.254864e+00	0	0
2813828	2.294000e+00	-4.505827e+01	8.698428e+01	0	0
2815781	2.294000e+00	-7.658494e+01	5.646604e+01	0	0
2817734	2.294822e+00	-6.631580e+01	1.503429e+00	0	0
2819688	2.295000e+00	-8.278968e+01	7.394920e+00	0	0
2821641	2.295000e+00	-7.065709e+01	-7.726894e+01	0	0
2823594	2.295823e+00	-6.853767e+01	-9.062481e+01	0	0
2825547	2.296000e+00	-7.922677e+01	-5.784390e+01	0	0
2827500	2.296000e+00	-5.042758e+01	-5.949285e+00	0	0
2829453	2.296823e+00	-3.981781e+01	4.357232e+00	0	0
2831406	2.297000e+00	-4.976958e+01	-6.409095e+00	0	0
2833359	2.297000e+00	-4.811935e+01	7.812681e+01	0	0
2835313	2.297824e+00	-3.336368e+01	7.880122e+01	0	0
2837266	2.298000e+00	-1.602365e+01	7.791195e+00	0	0
2839219	2.298000e+00	-1.239354e+01	8.021626e+00	0	0
2841172	2.298824e+00	-7.710554e+00	-7.347121e+01	0	0
2843125	2.299000e+00	-9.412593e+00	-9.270063e+01	0	0
2845078	2.299824e+00	-2.537181e+01	-6.825251e+01	0	0
2847031	2.300000e+00	-2.692259e+01	-5.813354e+00	0	0
2848984	2.300000e+00	-4.536179e+01	6.306871e+00	0	0
2850938	2.300825e+00	-4.760416e+01	-3.644327e+00	0	0
2852891	2.301000e+00	-4.445925e+01	7.202241e+01	0	0
2854844	2.301000e+00	-4.217947e+01	1.142347e+02	0	0
2856797	2.301825e+00	-4.063626e+01	1.708000e+01	0	0
2858750	2.302000e+00	-5.180591e+01	-1.660620e+00	0	0
2860703	2.302000e+00	-5.892837e+01	-8.177273e+00	0	0
2862656	2.302826e+00	-7.176525e+01	-9.576370e+01	0	0
2864609	2.303000e+00	-4.776178e+01	-8.117292e+01	0	0
2866563	2.303000e+00	-3.415223e+01	-4.897108e+00	0	0
2868516	2.303826e+00	-9.054771e+01	4.038917e+00	0	0
2870469	2.304000e+00	-6.180508e+01	3.426698e+00	0	0
2872422	2.304000e+00	-7.161944e+01	2.809188e+00	0	0
2874375	2.304826e+00	-6.191179e+01	1.058802e+02	0	0
2876328	2.305000e+00	-6.445865e+01	2.180317e+01	0	0
2878281	2.305000e+00	-4.964696e+01	-5.134774e+00	0	0
2880234	2.305827e+00	-5.058543e+01	1.043539e+01	0	0
2882188	2.306000e+00	-3.570413e+01	-9.358553e+01	0	0
2884141	2.306827e+00	-2.200121e+01	-6.267244e+01	0	0
2886094	2.307000e+00	-5.134932e+01	-1.489989e+01	0	0
2888047	2.307000e+00	-6.044845e+01	-3.982388e-01	0	0
2890000	2.307827e+00	-6.065721e+01	4.069329e+00	0	0
2891953	2.308000e+00	-8.756119e+01	-7.513122e+00	0	0
2893906	2.308000e+00	-9.481033e+01	8.914144e+01	0	0
2895859	2.308828e+00	-4.409579e+01	6.624663e+01	0	0
2897813	2.309000e+00	-5.457990e+01	3.546205e+00	0	0
2899766	2.309000e+00	-4.840213e+01	8.021134e+00	0	0
2901719	2.309828e+00	-5.956806e+01	-8.274505e+01	0	0
2903672	2.310000e+00	-5.194205e+01	-9.680707e+01	0	0
2905625	2.310828e+00	-5.450622e+01	-5.771763e+01	0	0
2907578	2.311000e+00	-6.872726e+01	-5.078524e+00	0	0
2909531	2.311000e+00	-7.704242e+01	5.035683e+00	0	0
2911484	2.311829e+00	-6.247293e+01	-7.220389e+00	0	0
2913438	2.312000e+00	-5.374570e+01	8.965727e+01	0	0
2915391	2.312000e+00	-3.873804e+01	8.644988e+01	0	0
2917344	2.312829e+00	-4.821459e+01	6.806954e+00	0	0
2919297	2.313000e+00	-5.391130e+01	7.803335e+00	0	0
2921250	2.313000e+00	-4.579897e+01	-8.906080e+01	0	0
2923203	2.313830e+00	-5.720549e+01	-9.341298e+01	0	0
2925156	2.314000e+00	-5.881325e+01	-5.540408e+01	0	0
2927109	2.314830e+00	-6.316606e+01	-4.949677e+00	0	0
2929063	2.315000e+00	-5.958473e+01	4.667461e+00	0	0
2931016	2.315000e+00	-3.533588e+01	-5.398271e+00	0	0
2932969	2.315830e+00	-1.941080e+01	7.950894e+01	0	0
2934922	2.316000e+00	4.893488e+01	1.195637e+02	0	0
2936875	2.316000e+00	3.892357e+01	1.624729e+01	0	0
2938828	2.316831e+00	5.521337e+01	-3.496047e+00	0	0
2940781	2.317000e+00	8.452289e+01	2.522948e+00	0	0
2942734	2.317000e+00	7.098308e+01	-9.609372e+01	0	0
2944688	2.317831e+00	8.910793e+01	-8.208630e+01	0	0
2946641	2.318000e+00	9.674482e+01	-5.021976e+00	0	0
2948594	2.318831e+00	8.903531e+01	3.427821e+00	0	0
2950547	2.319000e+00	1.059186e+02	2.962614e+00	0	0
2952500	2.319000e+00	1.182775e+02	4.313565e+00	0	0
2954453	2.319832e+00	1.208042e+02	1.069766e+02	0	0
2956406	2.320000e+00	1.505502e+02	2.007113e+01	0	0
2958359	2.320000e+00	1.302122e+02	-4.853892e+00	0	0
2960313	2.320832e+00	1.570798e+02	6.009665e+00	0	0
2962266	2.321000e+00	1.593322e+02	-9.610087e+01	0	0
2964219	2.321000e+00	1.727647e+02	-6.677714e+01	0	0
2966172	2.321833e+00	1.569088e+02	-2.824929e+01	0	0
2968125	2.322000e+00	1.681931e+02	-2.530173e+00	0	0
2970078	2.322833e+00	1.727428e+02	3.647958e+00	0	0
2972031	2.323000e+00	2.006150e+02	-3.174974e+00	0	0
2973984	2.323000e+00	1.976811e+02	9.140756e+01	0	0
2975938	2.323833e+00	1.950366e+02	5.733674e+01	0	0
2977891	2.324000e+00	1.964888e+02	1.120126e+00	0	0
2979844	2.324000e+00	2.021537e+02	7.438663e+00	0	0
2981797	2.324834e+00	2.160425e+02	-8.511359e+01	0	0
2983750	2.325000e+00	1.806217e+02	-8.044541e+01	0	0
2985703	2.325000e+00	1.740539e+02	-4.615426e+01	0	0
2987656	2.325834e+00	1.438843e+02	-5.643528e+00	0	0
2989609	2.326000e+00	1.764016e+02	2.756149e+00	0	0
2991563	2.326834e+00	1.486745e+02	-8.200725e+00	0	0
2993516	2.327000e+00	1.216029e+02	8.271049e+01	0	0
2995469	2.327000e+00	9.868867e+01	8.634007e+01	0	0
2997422	2.327835e+00	7.660075e+01	5.469885e+00	0	0
2999375	2.328000e+00	6.986825e+01	4.776330e+00	0	0
3001328	2.328000e+00	5.245717e+01	-8.540675e+01	0	0
3003281	2.328835e+00	5.098883e+00	-8.995731e+01	0	0
3005234	2.329000e+00	-1.175420e-02	-5.347006e+01	0	0
3007188	2.329000e+00	-1.395796e+01	-6.689137e+00	0	0
3009141	2.329836e+00	-3.744814e+01	2.106787e+00	0	0
3011094	2.330000e+00	-5.256771e+01	-8.415325e+00	0	0
3013047	2.330836e+00	-9.371580e+01	8.301191e+01	0	0
3015000	2.331000e+00	-5.934770e+01	1.161847e+02	0	0
3016953	2.331000e+00	-6.983365e+01	1.078261e+01	0	0
3018906	2.331836e+00	-5.029164e+01	-9.416175e+00	0	0
3020859	2.332000e+00	-5.721475e+01	-3.155361e+00	0	0
3022813	2.332000e+00	-1.184334e+02	-1.028408e+02	0	0
3024766	2.332837e+00	-1.009501e+02	-8.636401e+01	0	0
3026719	2.333000e+00	-1.100177e+02	-1.006832e+01	0	0
3028672	2.333837e+00	-1.279052e+02	-2.296523e+00	0	0
3030625	2.334000e+00	-9.914336e+01	-1.275433e+00	0	0
3032578	2.334000e+00	-1.209041e+02	1.767462e+01	0	0
3034531	2.334837e+00	-1.200300e+02	1.156014e+02	0	0
3036484	2.335000e+00	-1.126710e+02	2.378892e+01	0	0
3038438	2.335000e+00	-1.121848e+02	-2.669254e+00	0	0
3040391	2.335838e+00	-1.121600e+02	5.502195e+00	0	0
3042344	2.336000e+00	-9.650076e+01	-1.009764e+02	0	0
3044297	2.336000e+00	-1.323013e+02	-7.086900e+01	0	0
3046250	2.336838e+00	-1.514248e+02	-9.894327e+00	0	0
3048203	2.337000e+00	-1.476080e+02	-8.689976e+00	0	0
3050156	2.337000e+00	-1.685222e+02	-1.412952e+01	0	0
3052109	2.337838e+00	-1.568212e+02	5.218526e+00	0	0
3054063	2.338000e+00	-1.403315e+02	7.736989e+01	0	0
3056016	2.338839e+00	-1.203403e+02	6.440802e+01	0	0
3057969	2.339000e+00	-1.198690e+02	7.825892e-01	0	0
3059922	2.339000e+00	-1.198382e+02	1.935624e+00	0	0
3061875	2.339000e+00	-9.426645e+01	-7.307147e+01	0	0
3063828	2.339839e+00	-1.168959e+02	-9.449242e+01	0	0
3065781	2.340839e+00	-1.464659e+02	-5.329860e+01	0	0
3067734	2.341000e+00	-1.452310e+02	9.812028e-01	0	0
3069688	2.341000e+00	-1.415257e+02	9.800132e+00	0	0
3071641	2.341840e+00	-1.290260e+02	-4.168994e+00	0	0
3073594	2.342000e+00	-1.457393e+02	8.933303e+01	0	0
3075547	2.342000e+00	-1.254581e+02	5.980707e+01	0	0
3077500	2.342840e+00	-1.194119e+02	4.838338e+00	0	0
3079453	2.343000e+00	-1.036199e+02	1.239304e+01	0	0
3081406	2.343000e+00	-1.558886e+02	-8.280527e+01	0	0
3083359	2.343840e+00	-1.819427e+02	-9.354518e+01	0	0
3085313	2.344000e+00	-2.051305e+02	-6.939763e+01	0	0
3087266	2.344841e+00	-2.288305e+02	-3.603922e+00	0	0
3089219	2.345000e+00	-2.150133e+02	8.100592e+00	0	0
3091172	2.345000e+00	-1.853324e+02	-1.721869e+00	0	0
3093125	2.345841e+00	-1.148912e+02	7.928809e+01	0	0
3095078	2.346000e+00	-2.674882e+01	1.191513e+02	0	0
3097031	2.346000e+00	8.390625e+01	1.556917e+01	0	0
3098984	2.346841e+00	1.539849e+02	2.299173e+00	0	0
3100938	2.347000e+00	3.182280e+02	-4.341808e+01	0	0
3102891	2.347842e+00	5.862160e+02	-1.027478e+02	0	0
3104844	2.348000e+00	8.142885e+02	-9.432269e+01	0	0
3106797	2.348000e+00	1.111943e+03	-8.090806e+00	0	0
3108750	2.348842e+00	1.353975e+03	4.332251e+00	0	0
3110703	2.349000e+00	1.592123e+03	2.989197e+00	0	0
3112656	2.349000e+00	1.806131e+03	1.322674e+01	0	0
3114609	2.349842e+00	1.794337e+03	1.109619e+02	0	0
3116563	2.350000e+00	1.654817e+03	1.856374e+01	0	0
3118516	2.350000e+00	1.415635e+03	-5.226756e+00	0	0
3120469	2.350843e+00	1.132050e+03	2.681988e+00	0	0
3122422	2.351000e+00	8.395257e+02	-1.004272e+02	0	0
3124375	2.351843e+00	6.994624e+02	-7.174466e+01	0	0
3126328	2.352000e+00	5.068890e+02	-6.866500e+00	0	0
3128281	2.352000e+00	1.650075e+02	-1.634640e+00	0	0
3130234	2.352843e+00	-1.594337e+02	-1.647565e+00	0	0
3132188	2.353000e+00	-2.753173e+02	4.578023e+00	0	0
3134141	2.353000e+00	-2.849473e+02	9.241874e+01	0	0
3136094	2.353844e+00	-2.893603e+02	4.534658e+01	0	0
3138047	2.354000e+00	-2.354150e+02	4.569264e-01	0	0
3140000	2.354000e+00	-1.990003e+02	8.018761e+00	0	0
3141953	2.354844e+00	-1.488023e+02	-8.054292e+01	0	0
3143906	2.355000e+00	-1.322534e+02	-8.664516e+01	0	0
3145859	2.355844e+00	-9.946970e+01	-5.694471e+01	0	0
3147813	2.356000e+00	-8.099154e+01	-5.091080e+00	0	0
3149766	2.356000e+00	-6.336762e+01	4.668110e+00	0	0
3151719	2.356845e+00	-8.407321e+01	-6.624237e+00	0	0
3153672	2.357000e+00	-9.387223e+01	8.165671e+01	0	0
3155625	2.357845e+00	-5.210898e+01	5.904932e+01	0	0
3157578	2.358000e+00	-1.068108e+02	2.014189e+00	0	0
3159531	2.358000e+00	-1.121806e+02	5.784254e+00	0	0
3161484	2.358845e+00	-1.218409e+02	-7.865994e+01	0	0
3163438	2.359000e+00	-1.189219e+02	-9.187461e+01	0	0
3165391	2.359000e+00	-9.260106e+01	-6.539410e+01	0	0
3167344	2.359846e+00	-8.705067e+01	-6.787227e+00	0	0
3169297	2.360000e+00	-7.496325e+01	3.114253e+00	0	0
3171250	2.360000e+00	-9.501012e+01	-5.885132e+00	0	0
3173203	2.360846e+00	-8.704598e+01	7.108754e+01	0	0
3175156	2.361000e+00	-7.775977e+01	1.016195e+02	0	0
3177109	2.361000e+00	-9.558665e+01	1.043115e+01	0	0
3179063	2.361847e+00	-6.376635e+01	-1.183548e+00	0	0
3181016	2.362000e+00	-4.817882e+01	-2.832482e+01	0	0
3182969	2.362847e+00	-7.095614e+01	-9.129676e+01	0	0
3184922	2.363000e+00	-9.487070e+01	-8.976697e+01	0	0
3186875	2.363000e+00	-9.097811e+01	-8.691431e+00	0	0
3188828	2.363847e+00	-7.104710e+01	2.675417e+00	0	0
3190781	2.364000e+00	-1.072535e+02	2.436663e+00	0	0
3192734	2.364847e+00	-9.553233e+01	1.174202e+01	0	0
3194688	2.365000e+00	-7.711543e+01	1.037132e+02	0	0
3196641	2.365000e+00	-6.114267e+01	1.565781e+01	0	0
3198594	2.365848e+00	-2.082844e+01	-6.226503e+00	0	0
3200547	2.366000e+00	2.790468e-01	9.623940e+00	0	0
3202500	2.366000e+00	-2.821307e+01	-9.501819e+01	0	0
3204453	2.366848e+00	-3.673707e+01	-5.062606e+01	0	0
3206406	2.367000e+00	-3.885288e+01	-5.290564e+00	0	0
3208359	2.367848e+00	-2.754588e+01	-5.662355e+00	0	0
3210313	2.368000e+00	-2.956973e+01	-5.756336e+00	0	0
3212266	2.368000e+00	-5.453065e+01	3.002543e+00	0	0
3214219	2.368849e+00	-5.572856e+01	8.966045e+01	0	0
3216172	2.369000e+00	-2.986073e+01	4.883729e+01	0	0
3218125	2.369000e+00	-3.015283e+01	6.004579e-02	0	0
3220078	2.369849e+00	-2.645402e+01	6.130364e+00	0	0
3222031	2.370000e+00	-3.089390e+01	-8.214332e+01	0	0
3223984	2.370000e+00	-1.799863e+01	-9.992472e+01	0	0
3225938	2.370850e+00	-4.644609e+01	-4.789918e+01	0	0
3227891	2.371000e+00	-5.403321e+01	1.923637e+00	0	0
3229844	2.371000e+00	-2.671902e+01	1.020824e+01	0	0
3231797	2.371850e+00	-4.768979e+01	-9.056986e-01	0	0
3233750	2.372000e+00	-4.060314e+01	9.496983e+01	0	0
3235703	2.372850e+00	-3.375872e+01	6.869434e+01	0	0
3237656	2.373000e+00	-2.911401e+01	4.631521e+00	0	0
3239609	2.373000e+00	-1.888734e+01	9.140980e+00	0	0
3241563	2.373851e+00	-6.075002e-01	-8.708806e+01	0	0
3243516	2.374000e+00	-1.430562e+01	-9.499733e+01	0	0
3245469	2.374851e+00	-1.391928e+01	-5.420667e+01	0	0
3247422	2.375000e+00	1.326947e+01	-2.756204e+00	0	0
3249375	2.375000e+00	1.997873e+01	4.869471e+00	0	0
3251328	2.375851e+00	-9.965297e+00	-6.804735e+00	0	0
3253281	2.376000e+00	3.119793e+01	8.380471e+01	0	0
3255234	2.376000e+00	-9.100925e+00	1.146735e+02	0	0
3257188	2.376852e+00	4.713907e+01	7.102138e+00	0	0
3259141	2.377000e+00	5.933924e+01	-2.375139e+00	0	0
3261094	2.377000e+00	4.074868e+01	-5.531576e+01	0	0
3263047	2.377852e+00	4.643261e+01	-1.089603e+02	0	0
3265000	2.378000e+00	4.846341e+01	-8.929515e+01	0	0
3266953	2.378852e+00	3.721659e+01	-8.381488e+00	0	0
3268906	2.379000e+00	3.720179e+01	1.850755e+00	0	0
3270859	2.379000e+00	5.330740e+01	-4.126437e-01	0	0
3272813	2.379853e+00	5.012261e+01	3.448844e+01	0	0
3274766	2.380000e+00	7.937220e+01	1.167982e+02	0	0
3276719	2.380000e+00	4.495142e+01	1.591290e+01	0	0
3278672	2.380853e+00	7.683123e+01	-1.028627e+01	0	0
3280625	2.381000e+00	8.471136e+01	4.372121e+00	0	0
3282578	2.381000e+00	1.231638e+02	-1.073511e+02	0	0
3284531	2.381853e+00	9.764603e+01	-6.615037e+01	0	0
3286484	2.382000e+00	1.384178e+02	-1.341792e+01	0	0
3288438	2.382854e+00	1.095208e+02	-1.175163e+01	0	0
3290391	2.383000e+00	1.097040e+02	-1.104166e+01	0	0
3292344	2.383000e+00	1.336533e+02	7.752372e+00	0	0
3294297	2.383854e+00	1.298921e+02	8.958194e+01	0	0
3296250	2.384000e+00	1.308271e+02	4.185838e+01	0	0
3298203	2.384000e+00	1.593587e+02	-1.986059e+00	0	0
3300156	2.384854e+00	1.906498e+02	1.028916e+01	0	0
3302109	2.385000e+00	1.675940e+02	-7.841790e+01	0	0
3304063	2.385000e+00	1.714794e+02	-7.196511e+01	0	0
3306016	2.385855e+00	1.614349e+02	-3.922643e+01	0	0
3307969	2.386000e+00	1.802463e+02	-1.628458e+00	0	0
3309922	2.386855e+00	1.679186e+02	2.923348e+00	0	0
3311875	2.387000e+00	2.055883e+02	-8.418705e+00	0	0
3313828	2.387000e+00	2.215279e+02	8.438778e+01	0	0
3315781	2.387000e+00	2.276925e+02	6.395446e+01	0	0
3317734	2.387856e+00	2.576671e+02	2.564971e+00	0	0
3319688	2.388000e+00	2.640179e+02	6.953969e+00	0	0
3321641	2.388856e+00	2.501652e+02	-8.596385e+01	0	0
3323594	2.389000e+00	2.604301e+02	-8.271361e+01	0	0
3325547	2.389000e+00	2.619903e+02	-5.434363e+01	0	0
3327500	2.389856e+00	2.751740e+02	-7.807846e+00	0	0
3329453	2.390000e+00	2.782171e+02	3.616856e-01	0	0
3331406	2.390856e+00	2.989007e+02	-9.530847e+00	0	0
3333359	2.391000e+00	3.193695e+02	8.391618e+01	0	0
3335313	2.391000e+00	3.196411e+02	9.377860e+01	0	0
3337266	2.391000e+00	3.100212e+02	8.644897e+00	0	0
3339219	2.391857e+00	3.130646e+02	5.255829e+00	0	0
3341172	2.392000e+00	3.375200e+02	-6.353832e+01	0	0
3343125	2.392857e+00	3.350303e+02	-9.993978e+01	0	0
3345078	2.393000e+00	3.517612e+02	-1.051401e+02	0	0
3347031	2.393000e+00	3.661918e+02	-5.789038e+00	0	0
3348984	2.393858e+00	3.974179e+02	1.031361e+01	0	0
3350938	2.394000e+00	4.223101e+02	4.402610e+00	0	0
3352891	2.394858e+00	3.895996e+02	4.391986e+01	0	0
3354844	2.395000e+00	4.364877e+02	1.136683e+02	0	0
3356797	2.395000e+00	4.548232e+02	1.244856e+01	0	0
3358750	2.395858e+00	4.340148e+02	-8.844394e+00	0	0
3360703	2.396000e+00	4.709760e+02	5.533992e+00	0	0
3362656	2.396000e+00	4.942497e+02	-1.096266e+02	0	0
3364609	2.396859e+00	4.309471e+02	-6.269372e+01	0	0
3366563	2.397000e+00	4.463765e+02	-1.767380e+01	0	0
3368516	2.397859e+00	4.583351e+02	-1.706840e+01	0	0
3370469	2.398000e+00	4.373652e+02	-1.528527e+01	0	0
3372422	2.398000e+00	4.223141e+02	6.920429e-01	0	0
3374375	2.398859e+00	3.883880e+02	8.768546e+01	0	0
3376328	2.399000e+00	4.395580e+02	3.135792e+01	0	0
3378281	2.399000e+00	3.992713e+02	-8.168477e+00	0	0
3380234	2.399860e+00	3.852460e+02	4.886544e+00	0	0
3382188	2.400000e+00	3.708976e+02	-8.466490e+01	0	0
3384141	2.400000e+00	3.543473e+02	-7.309235e+01	0	0
3386094	2.400860e+00	3.237099e+02	-2.728710e+01	0	0
3388047	2.401000e+00	2.908877e+02	2.888621e+00	0	0
3390000	2.401860e+00	2.846753e+02	7.267289e+00	0	0
3391953	2.402000e+00	2.696446e+02	-3.773858e+00	0	0
3393906	2.402000e+00	2.427516e+02	8.810167e+01	0	0
3395859	2.402861e+00	2.134913e+02	6.656112e+01	0	0
3397813	2.403000e+00	2.239047e+02	1.566109e+00	0	0
3399766	2.403000e+00	1.871940e+02	5.558824e+00	0	0
3401719	2.403861e+00	1.389263e+02	-8.549842e+01	0	0
3403672	2.404000e+00	1.052109e+02	-8.879930e+01	0	0
3405625	2.404000e+00	7.635484e+01	-4.655236e+01	0	0
3407578	2.404862e+00	4.814538e+01	-2.012120e-01	0	0
3409531	2.405000e+00	3.381032e+01	6.296696e+00	0	0
3411484	2.405862e+00	2.080052e+01	-4.261689e+00	0	0
3413438	2.406000e+00	9.314388e+00	9.115107e+01	0	0
3415391	2.406000e+00	-4.115124e+00	1.035979e+02	0	0
3417344	2.406862e+00	1.600452e+01	9.922327e+00	0	0
3419297	2.407000e+00	-1.235985e+01	6.299904e+00	0	0
3421250	2.407000e+00	2.936459e+00	-7.385074e+01	0	0
3423203	2.407863e+00	-2.263387e-01	-1.078041e+02	0	0
3425156	2.408000e+00	-4.026183e+01	-8.325164e+01	0	0
3427109	2.408000e+00	-4.125869e+01	-7.393333e+00	0	0
3429063	2.408863e+00	-4.629141e+01	3.757591e+00	0	0
3431016	2.409000e+00	-3.851720e+01	-1.917436e-01	0	0
3432969	2.409863e+00	-7.460446e+01	4.236028e+01	0	0
3434922	2.410000e+00	-4.004813e+01	1.158732e+02	0	0
3436875	2.410000e+00	-4.578065e+01	1.249456e+01	0	0
3438828	2.410000e+00	-3.815503e+01	-8.163580e+00	0	0
3440781	2.410864e+00	-5.310723e+01	5.683352e+00	0	0
3442734	2.411000e+00	-5.253150e+01	-1.087882e+02	0	0
3444688	2.411864e+00	-6.528502e+01	-7.402243e+01	0	0
3446641	2.412000e+00	-7.390904e+01	-1.240159e+01	0	0
3448594	2.412000e+00	-6.432521e+01	-7.410964e+00	0	0
3450547	2.412865e+00	-7.391577e+01	-4.313957e+00	0	0
3452500	2.413000e+00	-8.324218e+01	2.673187e+00	0	0
3454453	2.413000e+00	-1.153600e+02	9.588825e+01	0	0
3456406	2.413865e+00	-8.617261e+01	1.564314e+01	0	0
3458359	2.414000e+00	-8.681012e+01	-4.473726e+00	0	0
3460313	2.414000e+00	-8.842453e+01	7.256429e+00	0	0
3462266	2.414865e+00	-7.002838e+01	-8.278176e+01	0	0
3464219	2.415000e+00	-5.713893e+01	-8.049932e+01	0	0
3466172	2.415866e+00	-7.822499e+01	-4.005106e+01	0	0
3468125	2.416000e+00	-1.082750e+02	-1.916065e+00	0	0
3470078	2.416000e+00	-1.168308e+02	3.847110e+00	0	0
3472031	2.416866e+00	-1.091718e+02	-5.766529e+00	0	0
3473984	2.417000e+00	-9.300558e+01	8.151162e+01	0	0
3475938	2.417000e+00	-8.593098e+01	5.458645e+01	0	0
3477891	2.417866e+00	-6.812336e+01	3.350936e+00	0	0
3479844	2.418000e+00	-5.358345e+01	8.021283e+00	0	0
3481797	2.418000e+00	-5.394772e+01	-7.546415e+01	0	0
3483750	2.418867e+00	-7.053863e+01	-8.123361e+01	0	0
3485703	2.419000e+00	-8.075657e+01	-6.822541e+01	0	0
3487656	2.419867e+00	-9.090316e+01	-3.893252e+00	0	0
3489609	2.420000e+00	-1.052328e+02	6.034076e+00	0	0
3491563	2.420000e+00	-9.887805e+01	-3.403936e+00	0	0
3493516	2.420868e+00	-8.791761e+01	8.183621e+01	0	0
3495469	2.421000e+00	-1.144768e+02	1.034964e+02	0	0
3497422	2.421000e+00	-6.566267e+01	8.784716e+00	0	0
3499375	2.421868e+00	-5.397223e+01	5.698780e+00	0	0
3501328	2.422000e+00	-4.826925e+01	-8.584764e+01	0	0
3503281	2.422000e+00	-3.718359e+01	-9.866690e+01	0	0
3505234	2.422868e+00	-1.007265e+02	-7.693066e+01	0	0
3507188	2.423000e+00	-5.775648e+01	-5.753699e+00	0	0
3509141	2.423869e+00	-8.081157e+01	3.652274e+00	0	0
3511094	2.424000e+00	-6.040937e+01	5.264916e-01	0	0
3513047	2.424000e+00	-9.135618e+01	4.074770e+01	0	0
3515000	2.424000e+00	-7.001548e+01	1.140681e+02	0	0
3516953	2.424869e+00	-9.155626e+01	1.328733e+01	0	0
3518906	2.425000e+00	-1.230833e+02	-5.341794e+00	0	0
3520859	2.425869e+00	-8.296468e+01	8.785195e+00	0	0
3522813	2.426000e+00	-8.984471e+01	-1.040430e+02	0	0
3524766	2.426000e+00	-7.194611e+01	-6.600543e+01	0	0
3526719	2.426870e+00	-4.671515e+01	-8.447787e+00	0	0
3528672	2.427000e+00	-5.849221e+01	-4.625336e+00	0	0
3530625	2.427000e+00	-6.137178e+01	-3.633512e+00	0	0
3532578	2.427870e+00	-4.185563e+01	1.826583e+01	0	0
3534531	2.428000e+00	-3.946126e+01	9.696274e+01	0	0
3536484	2.428000e+00	-8.920673e+00	2.752100e+01	0	0
3538438	2.428871e+00	-1.679990e+01	-2.560536e+00	0	0
3540391	2.429000e+00	-7.928377e+00	9.492682e+00	0	0
3542344	2.429871e+00	-7.445177e+01	-8.563886e+01	0	0
3544297	2.430000e+00	-9.633469e+01	-7.394003e+01	0	0
3546250	2.430000e+00	-8.667862e+01	-4.726996e+01	0	0
3548203	2.430871e+00	-6.921451e+01	-4.562218e+00	0	0
3550156	2.431000e+00	-8.417617e+01	2.615558e+00	0	0
3552109	2.431000e+00	-7.329420e+01	-7.108683e+00	0	0
3554063	2.431872e+00	-6.410714e+01	8.765700e+01	0	0
3556016	2.432000e+00	-4.415967e+01	6.239241e+01	0	0
3557969	2.432000e+00	-4.608371e+01	3.515813e+00	0	0
3559922	2.432872e+00	-4.661742e+01	7.305489e+00	0	0
3561875	2.433000e+00	-2.215403e+01	-8.327726e+01	0	0
3563828	2.433000e+00	-4.734743e+01	-8.021514e+01	0	0
3565781	2.433872e+00	-5.095402e+01	-3.964193e+01	0	0
3567734	2.434000e+00	-8.096375e+01	5.124921e-01	0	0
3569688	2.434873e+00	-8.194998e+01	5.961904e+00	0	0
3571641	2.435000e+00	-6.311414e+01	-3.125266e+00	0	0
3573594	2.435000e+00	-9.187298e+01	8.751170e+01	0	0
3575547	2.435873e+00	-7.254671e+01	9.245858e+01	0	0
3577500	2.436000e+00	-7.082789e+01	5.623186e+00	0	0
3579453	2.436000e+00	-4.806833e+01	3.917520e+00	0	0
3581406	2.436873e+00	-6.748298e+01	-8.387640e+01	0	0
3583359	2.437000e+00	-8.553384e+01	-9.864663e+01	0	0
3585313	2.437874e+00	-6.330673e+01	-6.332449e+01	0	0
3587266	2.438000e+00	-9.688029e+01	5.932658e-01	0	0
3589219	2.438000e+00	-6.455953e+01	6.774783e+00	0	0
3591172	2.438000e+00	-8.888546e+01	-2.038835e+00	0	0
3593125	2.438874e+00	-9.172804e+01	5.465349e+01	0	0
3595078	2.439000e+00	-9.892259e+01	1.072626e+02	0	0
3597031	2.439000e+00	-8.968209e+01	8.773466e+00	0	0
3598984	2.439874e+00	-8.470547e+01	-9.468669e+00	0	0
3600938	2.440000e+00	-5.224111e+01	-6.097747e-01	0	0
3602891	2.440875e+00	-7.361851e+01	-1.087997e+02	0	0
3604844	2.441000e+00	-6.739479e+01	-7.321820e+01	0	0
3606797	2.441000e+00	-8.828712e+01	-1.169044e+01	0	0
3608750	2.441875e+00	-1.113957e+02	-4.057563e+00	0	0
3610703	2.442000e+00	-1.001605e+02	-1.925073e+00	0	0
3612656	2.442000e+00	-1.347162e+02	1.485030e+01	0	0
3614609	2.442875e+00	-1.029877e+02	9.815644e+01	0	0
3616563	2.443000e+00	-9.376289e+01	1.360776e+01	0	0
3618516	2.443000e+00	-6.270500e+01	9.246518e-01	0	0
3620469	2.443876e+00	-5.994895e+01	1.426367e+01	0	0
3622422	2.444000e+00	-4.002148e+01	-8.048592e+01	0	0
3624375	2.444000e+00	-5.818011e+01	-7.029847e+01	0	0
3626328	2.444876e+00	-5.909846e+01	-3.865324e+01	0	0
3628281	2.445000e+00	-4.952673e+01	-2.867641e+00	0	0
3630234	2.445876e+00	-6.195166e+01	3.002465e+00	0	0
3632188	2.446000e+00	-4.593046e+01	-6.037284e+00	0	0
3634141	2.446000e+00	-6.558224e+01	8.602469e+01	0	0
3636094	2.446877e+00	-7.755006e+01	5.044892e+01	0	0
3638047	2.447000e+00	-9.371108e+01	1.444117e+00	0	0
3640000	2.447000e+00	-1.047710e+02	6.796223e+00	0	0
3641953	2.447877e+00	-5.105008e+01	-8.125072e+01	0	0
3643906	2.448000e+00	-6.530719e+01	-8.060335e+01	0	0
3645859	2.448000e+00	-9.086472e+01	-3.561777e+01	0	0
3647813	2.448878e+00	-6.547421e+01	-8.976663e-01	0	0
3649766	2.449000e+00	-8.138990e+01	3.405109e+00	0	0
3651719	2.449000e+00	-8.222879e+01	-4.725359e+00	0	0
3653672	2.449878e+00	-6.322073e+01	8.344135e+01	0	0
3655625	2.450000e+00	-1.243531e+01	9.115274e+01	0	0
3657578	2.450000e+00	4.869725e+01	5.837897e+00	0	0
3659531	2.450878e+00	5.516781e+01	4.135103e+00	0	0
3661484	2.451000e+00	5.475986e+01	-7.961529e+01	0	0
3663438	2.451000e+00	7.108526e+01	-9.830060e+01	0	0
3665391	2.451879e+00	6.786738e+01	-6.525761e+01	0	0
3667344	2.452000e+00	7.195477e+01	-4.263853e+00	0	0
3669297	2.452000e+00	8.817916e+01	2.754005e+00	0	0
3671250	2.452880e+00	8.521616e+01	-2.885284e+00	0	0
3673203	2.453000e+00	8.356449e+01	5.989196e+01	0	0
3675156	2.453880e+00	1.217328e+02	1.076668e+02	0	0
3677109	2.454000e+00	1.547576e+02	1.085249e+01	0	0
3679063	2.454000e+00	1.425661e+02	-3.636033e+00	0	0
3681016	2.454000e+00	1.209193e+02	8.242685e+00	0	0
3682969	2.454881e+00	1.465891e+02	-9.582515e+01	0	0
3684922	2.455000e+00	1.414240e+02	-6.488581e+01	0	0
3686875	2.455881e+00	1.392478e+02	-2.481425e+00	0	0
3688828	2.456000e+00	1.522214e+02	1.001934e+00	0	0
3690781	2.456000e+00	1.218753e+02	2.348235e+00	0	0
3692734	2.456881e+00	1.623151e+02	-4.813681e+00	0	0
3694688	2.457000e+00	1.509390e+02	9.925551e+01	0	0
3696641	2.457000e+00	1.689107e+02	1.710399e+01	0	0
3698594	2.457882e+00	1.783761e+02	-3.519700e+00	0	0
3700547	2.458000e+00	1.958491e+02	7.567571e+00	0	0
3702500	2.458000e+00	1.797460e+02	-8.951357e+01	0	0
3704453	2.458000e+00	1.281740e+02	-6.629421e+01	0	0
3706406	2.458882e+00	1.366119e+02	-2.096447e+01	0	0
3708359	2.459000e+00	1.263465e+02	-9.079166e-01	0	0
3710313	2.459883e+00	1.351487e+02	2.524473e+00	0	0
3712266	2.460000e+00	1.023390e+02	-5.546430e+00	0	0
3714219	2.460883e+00	9.406974e+01	8.330005e+01	0	0
3716172	2.461000e+00	9.543480e+01	3.465291e+01	0	0
3718125	2.461000e+00	1.044260e+02	-5.608853e-01	0	0
3720078	2.461000e+00	8.390651e+01	5.687978e+00	0	0
3722031	2.461883e+00	6.134259e+01	-7.730771e+01	0	0
3723984	2.462000e+00	6.297294e+01	-8.210408e+01	0	0
3725938	2.462884e+00	2.690999e+01	-4.726927e+01	0	0
3727891	2.463000e+00	-9.617080e+00	-2.163945e+00	0	0
3729844	2.463000e+00	-2.289745e+01	3.711158e+00	0	0
3731797	2.463000e+00	-5.328933e+01	-4.028190e+00	0	0
3733750	2.463884e+00	-4.163684e+01	8.205748e+01	0	0
3735703	2.464000e+00	-4.079804e+01	7.534091e+01	0	0
3737656	2.464000e+00	-6.290112e+01	4.520516e+00	0	0
3739609	2.464885e+00	-6.614410e+01	4.150425e+00	0	0
3741563	2.465000e+00	-7.777901e+01	-7.412479e+01	0	0
3743516	2.465000e+00	-1.086827e+02	-9.698078e+01	0	0
3745469	2.465885e+00	-1.441170e+02	-6.819684e+01	0	0
3747422	2.466000e+00	-1.380355e+02	-4.296486e+00	0	0
3749375	2.466000e+00	-1.433424e+02	2.775522e+00	0	0
3751328	2.466886e+00	-1.585067e+02	-3.072482e+00	0	0
3753281	2.467000e+00	-1.523075e+02	6.470918e+01	0	0
3755234	2.467000e+00	-1.487383e+02	1.125419e+02	0	0
3757188	2.467887e+00	-1.325342e+02	1.056003e+01	0	0
3759141	2.468000e+00	-1.312278e+02	-3.932671e+00	0	0
3761094	2.468000e+00	-1.354253e+02	8.207636e+00	0	0
3763047	2.468887e+00	-1.420462e+02	-1.023955e+02	0	0
3765000	2.469000e+00	-1.302924e+02	-5.915172e+01	0	0
3766953	2.469000e+00	-1.349722e+02	-1.698979e+00	0	0
3768906	2.469887e+00	-1.535000e+02	1.100584e+00	0	0
3770859	2.470000e+00	-1.659023e+02	3.649201e-01	0	0
3772813	2.470888e+00	-1.747738e+02	2.164000e+01	0	0
3774766	2.471000e+00	-1.559638e+02	1.089726e+02	0	0
3776719	2.471000e+00	-1.319617e+02	1.168759e+01	0	0
3778672	2.471000e+00	-1.399682e+02	-3.700916e+00	0	0
3780625	2.471000e+00	-1.291109e+02	5.101942e+00	0	0
3782578	2.471888e+00	-1.577544e+02	-9.707517e+01	0	0
3784531	2.472000e+00	-1.751316e+02	-6.170962e+01	0	0
3786484	2.472888e+00	-1.459431e+02	-1.414905e+01	0	0
3788438	2.473000e+00	-1.699128e+02	-3.139285e-01	0	0
3790391	2.473000e+00	-1.548071e+02	2.310754e+00	0	0
3792344	2.473889e+00	-1.613423e+02	-4.994070e+00	0	0
3794297	2.474000e+00	-1.467153e+02	8.524805e+01	0	0
3796250	2.474000e+00	-1.562058e+02	5.804579e+01	0	0
3798203	2.474889e+00	-1.723646e+02	2.166152e+00	0	0
3800156	2.475000e+00	-1.699282e+02	4.077937e+00	0	0
3802109	2.475000e+00	-1.849638e+02	-6.726822e+01	0	0
3804063	2.475890e+00	-2.246432e+02	-8.454374e+01	0	0
3806016	2.476000e+00	-2.569117e+02	-5.488198e+01	0	0
3807969	2.476000e+00	-2.379419e+02	-3.137630e+00	0	0
3809922	2.476890e+00	-2.233392e+02	2.838019e+00	0	0
3811875	2.477000e+00	-1.618881e+02	-3.924169e+00	0	0
3813828	2.477000e+00	-7.835615e+01	7.467354e+01	0	0
3815781	2.477891e+00	1.258542e+00	7.907099e+01	0	0
3817734	2.478000e+00	9.953882e+01	4.704952e+00	0	0
3819688	2.478000e+00	2.053156e+02	3.469273e+00	0	0
3821641	2.478000e+00	3.899059e+02	-6.835773e+01	0	0
3823594	2.478892e+00	6.619523e+02	-8.451315e+01	0	0
3825547	2.479000e+00	9.086631e+02	-6.261967e+01	0	0
3827500	2.479892e+00	1.158353e+03	-3.886932e+00	0	0
3829453	2.480000e+00	1.403111e+03	2.958391e+00	0	0
3831406	2.480000e+00	1.637076e+03	-3.978695e+00	0	0
3833359	2.480892e+00	1.736850e+03	7.848061e+01	0	0
3835313	2.481000e+00	1.643572e+03	1.025475e+02	0	0
3837266	2.481000e+00	1.505287e+03	6.371434e+00	0	0
3839219	2.481000e+00	1.192217e+03	-6.224217e+00	0	0
3841172	2.481893e+00	9.622445e+02	-3.187131e+00	0	0
3843125	2.482000e+00	7.478455e+02	-9.645865e+01	0	0
3845078	2.482000e+00	5.676438e+02	-6.192669e+01	0	0
3847031	2.482893e+00	3.387229e+02	-1.971365e+00	0	0
3848984	2.483000e+00	6.719088e+00	9.763476e-01	0	0
3850938	2.483000e+00	-2.551846e+02	3.887830e+00	0	0
3852891	2.483894e+00	-3.469056e+02	9.090376e+00	0	0
3854844	2.484000e+00	-3.508307e+02	1.101122e+02	0	0
3856797	2.484000e+00	-3.389122e+02	1.559570e+01	0	0
3858750	2.484894e+00	-2.907162e+02	-3.217489e+00	0	0
3860703	2.485000e+00	-2.439871e+02	5.951470e+00	0	0
3862656	2.485000e+00	-1.749826e+02	-9.808558e+01	0	0
3864609	2.485000e+00	-1.506299e+02	-6.139176e+01	0	0
3866563	2.485895e+00	-9.507381e+01	-8.067880e+00	0	0
3868516	2.486000e+00	-1.034624e+02	-7.606555e+00	0	0
3870469	2.486000e+00	-6.370258e+01	-5.767387e+00	0	0
3872422	2.486895e+00	-7.492114e+01	-1.003516e+01	0	0
3874375	2.487000e+00	-4.425406e+01	8.647816e+01	0	0
3876328	2.487000e+00	-5.696867e+01	3.800068e+01	0	0
3878281	2.487896e+00	-5.266510e+01	-1.805147e-01	0	0
3880234	2.488000e+00	-6.250531e+01	6.708129e+00	0	0
3882188	2.488000e+00	-5.518198e+01	-6.339887e+01	0	0
3884141	2.488896e+00	-6.755137e+01	-7.844776e+01	0	0
3886094	2.489000e+00	-9.767573e+01	-3.948280e+01	0	0
3888047	2.489897e+00	-1.180853e+02	4.358528e+00	0	0
3890000	2.490000e+00	-1.284241e+02	7.675356e+00	0	0
3891953	2.490000e+00	-1.237412e+02	-9.626859e-01	0	0
3893906	2.490000e+00	-1.194949e+02	7.885350e+01	0	0
3895859	2.490897e+00	-1.088333e+02	6.577273e+01	0	0
3897813	2.491000e+00	-1.345735e+02	2.837411e+00	0	0
3899766	2.491000e+00	-1.042303e+02	4.655611e+00	0	0
3901719	2.491898e+00	-8.971061e+01	-7.829953e+01	0	0
3903672	2.492000e+00	-9.133419e+01	-6.749122e+01	0	0
3905625	2.492000e+00	-9.295400e+01	-5.595787e+01	0	0
3907578	2.492898e+00	-8.492003e+01	-2.769564e+00	0	0
3909531	2.493000e+00	-8.686510e+01	2.466465e+00	0	0
3911484	2.493000e+00	-8.940012e+01	-6.044025e+00	0	0
3913438	2.493000e+00	-1.086187e+02	7.897192e+01	0	0
3915391	2.493000e+00	-9.552836e+01	9.423718e+01	0	0
3917344	2.493899e+00	-1.083012e+02	2.481347e+00	0	0
3919297	2.494000e+00	-9.240340e+01	-3.471158e+00	0	0
3921250	2.494000e+00	-6.408503e+01	-1.825920e+01	0	0
3923203	2.494899e+00	-8.356139e+01	-9.192368e+01	0	0
3925156	2.495000e+00	-1.076168e+02	-7.640127e+01	0	0
3927109	2.495899e+00	-1.382223e+02	-3.630348e+00	0	0
3929063	2.496000e+00	-1.609616e+02	3.072303e+00	0	0
3931016	2.496000e+00	-9.866342e+01	5.030057e+00	0	0
3932969	2.496900e+00	-8.684295e+01	1.422997e+01	0	0
3934922	2.497000e+00	-6.901397e+01	1.080633e+02	0	0
3936875	2.497000e+00	-6.857746e+01	1.158400e+01	0	0
3938828	2.497000e+00	-6.944226e+01	-3.308418e+00	0	0
3940781	2.497000e+00	-5.408901e+01	7.279039e+00	0	0
3942734	2.497901e+00	-6.309231e+01	-9.666124e+01	0	0
3944688	2.498000e+00	-3.910048e+01	-6.147666e+01	0	0
3946641	2.498000e+00	-3.390909e+01	-4.998464e+00	0	0
3948594	2.498901e+00	-5.208648e+01	-2.781556e+00	0	0
3950547	2.499000e+00	-4.971030e+01	-2.963575e-01	0	0
3952500	2.499902e+00	-5.490797e+01	-5.941666e+00	0	0
3954453	2.500000e+00	-9.550839e+01	8.716831e+01	0	0
3956406	2.500000e+00	-6.270105e+01	3.948990e+01	0	0
3958359	2.500000e+00	-3.477408e+01	1.181198e-01	0	0
3960313	2.500902e+00	-6.287367e+01	5.076503e+00	0	0
3962266	2.501000e+00	-4.190855e+01	-7.931850e+01	0	0
3964219	2.501000e+00	-8.004296e+00	-7.830644e+01	0	0
3966172	2.501903e+00	6.887223e-01	-4.215203e+01	0	0
3968125	2.502000e+00	-1.273559e+01	-1.879705e+00	0	0
3970078	2.502000e+00	-5.884586e+00	2.639228e+00	0	0
3972031	2.502000e+00	-1.750041e+01	-3.776512e+00	0	0
3973984	2.502903e+00	2.123103e+01	8.079938e+01	0	0
3975938	2.503000e+00	2.993517e+01	6.199275e+01	0	0
3977891	2.503000e+00	2.530061e+01	2.805368e+00	0	0
3979844	2.503904e+00	6.050932e+01	4.633115e+00	0	0
3981797	2.504000e+00	7.673315e+01	-7.906358e+01	0	0
3983750	2.504000e+00	6.582336e+01	-8.919598e+01	0	0
3985703	2.504904e+00	4.648576e+01	-6.214772e+01	0	0
3987656	2.505000e+00	5.806386e+01	-3.204823e+00	0	0
3989609	2.505000e+00	3.968972e+01	2.712117e+00	0	0
3991563	2.505000e+00	2.862906e+01	-3.298032e+00	0	0
3993516	2.505905e+00	3.298675e+01	7.729756e+01	0	0
3995469	2.506000e+00	3.884769e+01	1.022493e+02	0	0
3997422	2.506000e+00	2.915463e+01	7.485751e+00	0	0
3999375	2.506905e+00	8.185408e+01	-2.039711e+00	0	0
4001328	2.507000e+00	6.776514e+01	2.065161e+00	0	0
4003281	2.507000e+00	8.880106e+01	-9.217006e+01	0	0
4005234	2.507000e+00	7.804784e+01	-8.911959e+01	0	0
4007188	2.507906e+00	7.719369e+01	-4.295171e+00	0	0
4009141	2.508000e+00	9.386385e+01	1.702328e+00	0	0
4011094	2.508000e+00	7.372413e+01	1.235083e+00	0	0
4013047	2.508906e+00	1.014729e+02	7.556695e+00	0	0
4015000	2.509000e+00	9.935101e+01	9.999374e+01	0	0
4016953	2.509000e+00	9.052399e+01	9.998577e+00	0	0
4018906	2.509000e+00	8.648655e+01	-2.757642e+00	0	0
4020859	2.509907e+00	9.104415e+01	6.298467e+00	0	0
4022813	2.510000e+00	8.219611e+01	-8.914371e+01	0	0
4024766	2.510000e+00	1.093929e+02	-6.868778e+01	0	0
4026719	2.510908e+00	1.547107e+02	-2.866012e+00	0	0
4028672	2.511000e+00	1.942429e+02	1.760652e-01	0	0
4030625	2.511000e+00	1.999849e+02	1.279582e+00	0	0
4032578	2.511908e+00	2.007082e+02	-3.990566e+00	0	0
4034531	2.512000e+00	2.126868e+02	8.029056e+01	0	0
4036484	2.512000e+00	2.382291e+02	3.033164e+01	0	0
4038438	2.512000e+00	2.542890e+02	-2.982838e-01	0	0
4040391	2.512909e+00	2.605349e+02	5.541633e+00	0	0
4042344	2.513000e+00	2.891392e+02	-7.168401e+01	0	0
4044297	2.513000e+00	2.778379e+02	-6.684990e+01	0	0
4046250	2.513909e+00	2.951564e+02	-4.681223e+01	0	0
4048203	2.514000e+00	2.918793e+02	-2.301996e+00	0	0
4050156	2.514000e+00	2.945277e+02	2.558444e+00	0	0
4052109	2.514000e+00	2.995525e+02	-3.479403e+00	0	0
4054063	2.514910e+00	3.100152e+02	7.458944e+01	0	0
4056016	2.515000e+00	3.317908e+02	5.405414e+01	0	0
4057969	2.515000e+00	3.472233e+02	1.854119e+00	0	0
4059922	2.515000e+00	3.361645e+02	4.493295e+00	0	0
4061875	2.515910e+00	3.641808e+02	-7.369138e+01	0	0
4063828	2.516000e+00	3.727526e+02	-6.170905e+01	0	0
4065781	2.516000e+00	3.391844e+02	-3.883193e+01	0	0
4067734	2.516910e+00	3.584355e+02	3.008205e-01	0	0
4069688	2.517000e+00	3.350668e+02	4.856161e+00	0	0
4071641	2.517000e+00	3.693469e+02	2.054978e-01	0	0
4073594	2.517911e+00	3.691347e+02	7.670368e+01	0	0
4075547	2.518000e+00	4.042387e+02	9.612771e+01	0	0
4077500	2.518000e+00	3.777303e+02	6.996103e+00	0	0
4079453	2.518000e+00	4.357171e+02	2.792665e+00	0	0
4081406	2.518000e+00	4.389547e+02	-2.897869e+01	0	0
4083359	2.518912e+00	4.066012e+02	-8.971108e+01	0	0
4085313	2.519000e+00	4.598387e+02	-6.833269e+01	0	0
4087266	2.519912e+00	4.413784e+02	-2.440715e+00	0	0
4089219	2.519088e+00	4.248236e+02	3.580381e+00	0	0
4091172	2.519913e+00	3.926431e+02	5.635819e+00	0	0
4093125	2.520000e+00	3.931117e+02	2.023266e+01	0	0
4095078	2.520000e+00	3.603147e+02	1.090556e+02	0	0
4097031	2.520913e+00	3.923001e+02	1.173179e+01	0	0
4098984	2.521000e+00	4.039881e+02	-4.905304e+00	0	0
4100938	2.521000e+00	3.839879e+02	2.728186e+00	0	0
4102891	2.521000e+00	3.244790e+02	-1.010870e+02	0	0
4104844	2.521914e+00	3.434477e+02	-5.001473e+01	0	0
4106797	2.522000e+00	3.482978e+02	-1.481337e+01	0	0
4108750	2.522914e+00	3.285270e+02	-1.578576e+01	0	0
4110703	2.523000e+00	2.940358e+02	-1.280726e+01	0	0
4112656	2.523000e+00	2.469060e+02	-1.393569e+01	0	0
4114609	2.523000e+00	2.502479e+02	7.755376e+01	0	0
4116563	2.523915e+00	2.129013e+02	4.421524e+01	0	0
4118516	2.524000e+00	2.131404e+02	-1.514068e+00	0	0
4120469	2.524000e+00	2.042182e+02	7.290904e+00	0	0
4122422	2.524000e+00	1.739640e+02	-6.967090e+01	0	0
4124375	2.524915e+00	1.399484e+02	-7.011506e+01	0	0
4126328	2.525000e+00	1.254913e+02	-4.064040e+01	0	0
4128281	2.525000e+00	9.189419e+01	6.267652e+00	0	0
4130234	2.525000e+00	8.245301e+01	9.509639e+00	0	0
4132188	2.525916e+00	5.999522e+01	1.541588e+00	0	0
4134141	2.526000e+00	4.090549e+01	8.138093e+01	0	0
4136094	2.526000e+00	3.672872e+01	4.935608e+01	0	0
4138047	2.526000e+00	2.037419e+01	1.232238e+00	0	0
4140000	2.526916e+00	2.458604e+01	5.226443e+00	0	0
4141953	2.527000e+00	6.087936e+00	-7.552210e+01	0	0
4143906	2.527916e+00	-2.576317e+01	-6.046511e+01	0	0
4145859	2.528000e+00	-3.065033e+01	-4.224253e+01	0	0
4147813	2.528000e+00	-3.300830e+01	1.707361e+00	0	0
4149766	2.528000e+00	-6.282155e+01	5.098949e+00	0	0
4151719	2.528917e+00	-9.857847e+01	-8.904936e-01	0	0
4153672	2.529000e+00	-1.002519e+02	7.755381e+01	0	0
4155625	2.529000e+00	-8.190531e+01	9.137427e+01	0	0
4157578	2.529000e+00	-1.088888e+02	7.035639e+00	0	0
4159531	2.529918e+00	-8.415351e+01	6.407055e+00	0	0
4161484	2.530000e+00	-6.267016e+01	-3.438881e+01	0	0
4163438	2.530000e+00	-9.260470e+01	-8.091050e+01	0	0
4165391	2.530000e+00	-1.067299e+02	-8.388089e+01	0	0
4167344	2.530919e+00	-1.179982e+02	2.471152e+00	0	0
4169297	2.531000e+00	-1.055320e+02	1.014183e+01	0	0
4171250	2.531000e+00	-1.110619e+02	9.314199e+00	0	0
4173203	2.531000e+00	-1.107438e+02	1.735768e+01	0	0
4175156	2.531919e+00	-1.077872e+02	1.023117e+02	0	0
4177109	2.532000e+00	-8.453590e+01	7.247490e+00	0	0
4179063	2.532000e+00	-3.500079e+01	-5.252737e+00	0	0
4181016	2.532000e+00	-2.731206e+01	-2.507936e-01	0	0
4182969	2.532920e+00	-4.331587e+01	-1.097721e+02	0	0
4184922	2.533000e+00	-5.034530e+01	-5.511944e+01	0	0
4186875	2.533000e+00	-4.559181e+01	-1.707129e+01	0	0
4188828	2.533920e+00	-5.625280e+01	-1.479366e+01	0	0
4190781	2.534000e+00	-1.035633e+02	-8.763036e+00	0	0
4192734	2.534000e+00	-1.122859e+02	-1.034818e+01	0	0
4194688	2.534921e+00	-8.940194e+01	8.008205e+01	0	0
4196641	2.535000e+00	-6.059464e+01	2.540860e+01	0	0
4198594	2.535000e+00	-1.810764e+01	2.041665e+00	0	0
4200547	2.535000e+00	-2.545352e+01	1.101217e+01	0	0
4202500	2.535921e+00	-4.457635e+01	-6.817394e+01	0	0
4204453	2.536000e+00	-3.360824e+01	-5.800383e+01	0	0
4206406	2.536000e+00	-3.489673e+01	-3.303974e+01	0	0
4208359	2.536000e+00	-2.025015e+01	2.426494e+00	0	0
4210313	2.536922e+00	-1.970736e+01	3.991331e+00	0	0
4212266	2.537000e+00	-2.267177e+01	-2.799355e+00	0	0
4214219	2.537000e+00	-2.361076e+01	7.329112e+01	0	0
4216172	2.537000e+00	-3.091618e+01	5.485206e+01	0	0
4218125	2.537922e+00	-3.023344e+01	1.447286e+00	0	0
4220078	2.538000e+00	-2.572864e+01	2.943305e+00	0	0
4222031	2.538000e+00	-7.590087e+00	-7.186668e+01	0	0
4223984	2.538923e+00	-2.031259e+01	-7.102289e+01	0	0
4225938	2.539000e+00	-2.843678e+01	-4.843352e+01	0	0
4227891	2.539000e+00	-3.969180e+01	1.133778e-01	0	0
4229844	2.539000e+00	-5.371354e+01	4.608907e+00	0	0
4231797	2.539924e+00	-4.113596e+01	-9.494624e-01	0	0
4233750	2.540000e+00	-4.085014e+01	6.272123e+01	0	0
4235703	2.540000e+00	-4.555972e+01	8.223412e+01	0	0
4237656	2.540000e+00	-2.806381e+01	1.650814e+00	0	0
4239609	2.540924e+00	-2.284612e+01	2.313050e-01	0	0
4241563	2.541000e+00	-3.748194e+01	-4.185749e+01	0	0
4243516	2.541000e+00	-9.480206e+01	-8.189595e+01	0	0
4245469	2.541000e+00	-1.046406e+02	-5.971574e+01	0	0
4247422	2.541925e+00	-1.173257e+02	-3.571685e-01	0	0
4249375	2.542000e+00	-1.635406e+02	5.243860e+00	0	0
4251328	2.542000e+00	-2.121195e+02	7.233976e+00	0	0
4253281	2.542925e+00	-2.519061e+02	1.042911e+01	0	0
4255234	2.543000e+00	-2.360949e+02	1.006277e+02	0	0
4257188	2.543000e+00	-2.127638e+02	7.589450e+00	0	0
4259141	2.543000e+00	-1.443587e+02	-2.085918e+00	0	0
4261094	2.543000e+00	-6.774721e+01	5.632847e+00	0	0
4263047	2.543926e+00	-6.139596e+01	-9.190030e+01	0	0
4265000	2.544000e+00	-3.975757e+01	-5.255751e+01	0	0
4266953	2.544000e+00	-1.304195e+01	-7.876195e+00	0	0
4268906	2.544926e+00	-4.335193e+00	-7.771670e+00	0	0
4270859	2.545000e+00	2.800303e+00	-6.671158e+00	0	0
4272813	2.545000e+00	1.704152e+01	1.296103e+00	0	0
4274766	2.545000e+00	3.163637e+01	8.256558e+01	0	0
4276719	2.545927e+00	4.108114e+01	7.714127e+00	0	0
4278672	2.546000e+00	5.783091e+01	-6.922060e+00	0	0
4280625	2.546000e+00	5.526320e+01	2.280127e+00	0	0
4282578	2.546000e+00	2.542696e+01	-8.043722e+01	0	0
4284531	2.546927e+00	2.352189e+01	-5.670822e+01	0	0
4286484	2.547000e+00	-1.919589e+00	-4.130714e+01	0	0
4288438	2.547000e+00	-4.309270e+00	1.708878e-01	0	0
4290391	2.547000e+00	-1.624419e+01	4.198737e+00	0	0
4292344	2.547928e+00	-4.390022e+01	-1.255100e+00	0	0
4294297	2.548000e+00	-2.121979e+01	8.189158e+01	0	0
4296250	2.548000e+00	-3.790193e+01	5.394637e+01	0	0
4298203	2.548000e+00	-6.033217e+01	3.300503e+00	0	0
4300156	2.548929e+00	-7.648697e+01	5.434868e+00	0	0
4302109	2.549000e+00	-1.093428e+02	-7.635860e+01	0	0
4304063	2.549000e+00	-1.538374e+02	-7.955411e+01	0	0
4306016	2.549929e+00	-1.860158e+02	-4.767871e+01	0	0
4307969	2.550000e+00	-1.779407e+02	-2.419904e+00	0	0
4309922	2.550000e+00	-1.163714e+02	4.839664e-01	0	0
4311875	2.550000e+00	-9.316336e+01	-4.453383e+00	0	0
4313828	2.550930e+00	-2.492479e+01	7.909739e+01	0	0
4315781	2.551000e+00	-2.056867e+01	7.773096e+01	0	0
4317734	2.551000e+00	-7.335571e+00	7.693797e+00	0	0
4319688	2.551000e+00	-4.651288e+01	1.218895e+01	0	0
4321641	2.551000e+00	-1.355540e+02	-4.964120e+01	0	0
4323594	2.551931e+00	-1.718750e+02	-7.998301e+01	0	0
4325547	2.552000e+00	-1.657995e+02	-7.364854e+01	0	0
4327500	2.552000e+00	-1.460290e+02	1.281514e+01	0	0
4329453	2.552000e+00	-1.235583e+02	1.978146e+01	0	0
4331406	2.552931e+00	-6.373001e+01	1.484858e+01	0	0
4333359	2.553000e+00	-4.683896e+01	3.434155e+01	0	0
4335313	2.553000e+00	-3.587069e+01	1.074684e+02	0	0
4337266	2.553000e+00	-9.440479e+00	6.952394e+00	0	0
4339219	2.553932e+00	-2.590835e+01	-1.780282e+00	0	0
4341172	2.554000e+00	-5.612386e+01	-7.185879e-01	0	0
4343125	2.554000e+00	-2.795944e+01	-1.169245e+02	0	0
4345078	2.554000e+00	-4.015176e+01	-5.844562e+01	0	0
4347031	2.554932e+00	-5.166802e+01	-1.919266e+01	0	0
4348984	2.555000e+00	-4.763983e+01	-1.724128e+01	0	0
4350938	2.555000e+00	-4.155380e+01	-1.342100e+01	0	0
4352891	2.555000e+00	-4.574402e+01	7.766735e+00	0	0
4354844	2.555933e+00	1.940163e+01	8.349066e+01	0	0
4356797	2.556000e+00	5.156849e+01	1.678393e+01	0	0
4358750	2.556000e+00	7.047271e+01	-3.562055e+00	0	0
4360703	2.556933e+00	6.029178e+01	5.493930e+00	0	0
4362656	2.557000e+00	5.335652e+01	-8.332633e+01	0	0
4364609	2.557000e+00	8.771674e+01	-5.446140e+01	0	0
4366563	2.557000e+00	4.964858e+01	-2.241399e+01	0	0
4368516	2.557934e+00	3.329775e+01	9.684431e-01	0	0
4370469	2.558000e+00	8.247480e+01	5.462714e+00	0	0
4372422	2.558000e+00	6.913633e+01	2.610750e+00	0	0
4374375	2.558000e+00	4.965545e+01	8.699198e+01	0	0
4376328	2.558000e+00	5.829460e+01	5.553868e+01	0	0
4378281	2.558935e+00	5.820757e+01	8.822273e+00	0	0
4380234	2.559000e+00	9.728667e+01	1.138014e+01	0	0
4382188	2.559000e+00	1.022608e+02	-6.764328e+01	0	0
4384141	2.559000e+00	1.231028e+02	-7.527389e+01	0	0
4386094	2.559936e+00	1.182311e+02	-3.157763e+01	0	0
4388047	2.560000e+00	1.346148e+02	7.969132e+00	0	0
4390000	2.560000e+00	1.337819e+02	1.042550e+01	0	0
4391953	2.560000e+00	1.572861e+02	6.277987e+00	0	0
4393906	2.560936e+00	1.881934e+02	8.781686e+01	0	0
4395859	2.561000e+00	1.448290e+02	9.362762e+01	0	0
4397813	2.561000e+00	1.386486e+02	1.055951e+01	0	0
4399766	2.561000e+00	1.683199e+02	8.554274e+00	0	0
4401719	2.561937e+00	1.792860e+02	-5.852778e+01	0	0
4403672	2.562000e+00	1.695319e+02	-8.240974e+01	0	0
4405625	2.562000e+00	1.457122e+02	-5.942588e+01	0	0
4407578	2.562000e+00	1.422697e+02	2.644588e+00	0	0
4409531	2.562937e+00	1.096160e+02	5.088087e+00	0	0
4411484	2.563000e+00	1.358537e+02	1.440192e+00	0	0
4413438	2.563000e+00	1.274114e+02	3.451156e+01	0	0
4415391	2.563000e+00	1.214282e+02	9.580316e+01	0	0
4417344	2.563938e+00	1.537737e+02	5.689999e+00	0	0
4419297	2.564000e+00	1.006012e+02	-1.366412e+00	0	0
4421250	2.564000e+00	7.833884e+01	4.847144e+00	0	0
4423203	2.564000e+00	5.960947e+01	-9.132450e+01	0	0
4425156	2.564000e+00	4.498314e+01	-4.965780e+01	0	0
