time	gsr	ecg	emg_trapezius	emg_corrugator	emg_zygomaticus
234	2.226000e+00	4.286225e+02	5.458139e+01	0	0
2188	2.226000e+00	4.536784e+02	1.628859e+01	0	0
4141	2.225881e+00	4.691894e+02	-4.694880e-01	0	0
6094	2.225000e+00	4.723678e+02	-7.056913e+00	0	0
8047	2.225119e+00	4.686185e+02	-5.412939e+01	0	0
10000	2.225881e+00	4.649964e+02	-3.525022e+01	0	0
11953	2.225000e+00	4.771321e+02	-2.164095e+01	0	0
13906	2.225000e+00	4.690324e+02	-4.809927e-01	0	0
15859	2.225000e+00	4.613325e+02	-2.882987e+00	0	0
17813	2.225120e+00	4.472316e+02	1.641805e+00	0	0
19766	2.225880e+00	4.292752e+02	4.196553e+01	0	0
21719	2.225000e+00	4.438254e+02	4.035144e+01	0	0
23672	2.225000e+00	4.200328e+02	-5.503711e+00	0	0
25625	2.225000e+00	3.962105e+02	-8.338531e+00	0	0
27578	2.225000e+00	3.766849e+02	-5.683934e+01	0	0
29531	2.225000e+00	3.524740e+02	-4.497167e+01	0	0
31484	2.225000e+00	3.192177e+02	-3.403923e+01	0	0
33438	2.225000e+00	2.706014e+02	-2.714518e+00	0	0
35391	2.225000e+00	2.439579e+02	-6.651585e+00	0	0
37344	2.225000e+00	2.329021e+02	-9.783613e-02	0	0
39297	2.225000e+00	1.887714e+02	5.574371e+01	0	0
41250	2.225000e+00	1.648254e+02	4.901568e+01	0	0
43203	2.225000e+00	1.378874e+02	-8.174218e+00	0	0
45156	2.225000e+00	1.209212e+02	-1.443116e+00	0	0
47109	2.225000e+00	1.020769e+02	-1.064745e+01	0	0
49063	2.225000e+00	7.831926e+01	-6.962407e+01	0	0
51016	2.225000e+00	6.303144e+01	-2.752871e+01	0	0
52969	2.225000e+00	4.445396e+01	-1.932675e+00	0	0
54922	2.225000e+00	2.282578e+01	-2.106953e+00	0	0
56875	2.225000e+00	-1.545284e+00	-3.014814e+00	0	0
58828	2.225000e+00	-9.940552e+00	8.428237e+00	0	0
60781	2.225000e+00	-2.861386e+01	6.740799e+01	0	0
62734	2.225000e+00	-3.959615e+01	-5.914900e+00	0	0
64688	2.225000e+00	-2.648162e+01	2.375192e+00	0	0
66641	2.225000e+00	-3.065043e+01	-8.180499e+00	0	0
68594	2.225000e+00	-4.685800e+01	-6.586527e+01	0	0
70547	2.225000e+00	-6.468080e+01	-1.056960e+01	0	0
72500	2.225000e+00	-6.130258e+01	-4.805244e+00	0	0
74453	2.225000e+00	-8.196986e+01	-4.530728e+00	0	0
76406	2.225000e+00	-8.743641e+01	-5.099431e+00	0	0
78359	2.225000e+00	-9.228245e+01	5.102658e+00	0	0
80313	2.225000e+00	-9.618630e+01	5.381363e+01	0	0
82266	2.225000e+00	-7.827960e+01	8.959837e+00	0	0
84219	2.225000e+00	-7.277201e+01	4.352363e-02	0	0
86172	2.225000e+00	-9.294084e+01	-2.888873e+00	0	0
88125	2.225000e+00	-9.688492e+01	-5.089605e+01	0	0
90078	2.225000e+00	-9.608546e+01	-4.023193e+01	0	0
92031	2.225000e+00	-1.078463e+02	-2.530971e+01	0	0
93984	2.225000e+00	-1.035951e+02	1.847664e+00	0	0
95938	2.225000e+00	-1.209650e+02	-3.059228e+00	0	0
97891	2.225000e+00	-1.096106e+02	3.303807e+00	0	0
99844	2.225000e+00	-1.083711e+02	5.082399e+01	0	0
101797	2.225000e+00	-8.810666e+01	2.295907e+01	0	0
103750	2.225000e+00	-7.738992e+01	-7.445096e-02	0	0
105703	2.225000e+00	-9.772486e+01	-3.966927e+00	0	0
107656	2.225000e+00	-9.416870e+01	-5.345196e+01	0	0
109609	2.225000e+00	-8.992568e+01	-4.344909e+01	0	0
111563	2.225000e+00	-1.010022e+02	-3.393018e+01	0	0
113516	2.225000e+00	-1.042872e+02	6.523192e+00	0	0
115469	2.225000e+00	-1.136658e+02	3.059861e+00	0	0
117422	2.225000e+00	-1.191669e+02	7.540623e+00	0	0
119375	2.224877e+00	-1.059814e+02	4.807472e+01	0	0
121328	2.224000e+00	-9.383474e+01	6.029354e+01	0	0
123281	2.224123e+00	-1.026405e+02	-2.353780e-01	0	0
125234	2.225000e+00	-9.633408e+01	6.546042e+00	0	0
127188	2.224876e+00	-9.750810e+01	-1.212750e+01	0	0
129141	2.224124e+00	-9.691797e+01	-6.802179e+01	0	0
131094	2.224876e+00	-1.116043e+02	-4.243344e+01	0	0
133047	2.224000e+00	-1.175811e+02	2.275450e+00	0	0
135000	2.224000e+00	-1.163891e+02	1.552550e+00	0	0
136953	2.224000e+00	-1.261478e+02	1.383733e+00	0	0
138906	2.224124e+00	-1.279387e+02	1.258433e+01	0	0
140859	2.225000e+00	-1.182769e+02	7.299164e+01	0	0
142813	2.224876e+00	-1.107966e+02	-1.112980e+01	0	0
144766	2.224000e+00	-1.043040e+02	-2.869214e+00	0	0
146719	2.224124e+00	-1.033190e+02	-1.669854e+01	0	0
148672	2.224876e+00	-1.225690e+02	-8.118881e+01	0	0
150625	2.224000e+00	-1.081535e+02	-1.792338e+01	0	0
152578	2.224000e+00	-1.008304e+02	-1.699677e+01	0	0
154531	2.224000e+00	-1.135110e+02	-1.449293e+01	0	0
156484	2.224000e+00	-1.173756e+02	-1.347150e+01	0	0
158438	2.224000e+00	-1.135523e+02	8.009421e-01	0	0
160391	2.224000e+00	-1.191646e+02	5.575547e+01	0	0
162344	2.224000e+00	-9.958109e+01	4.729797e-01	0	0
164297	2.224000e+00	-8.882242e+01	3.577193e+00	0	0
166250	2.224000e+00	-9.676793e+01	6.255875e-01	0	0
168203	2.224000e+00	-9.811034e+01	-4.846935e+01	0	0
170156	2.224000e+00	-1.100595e+02	-4.486305e+01	0	0
172109	2.224000e+00	-1.181539e+02	-2.587825e+01	0	0
174063	2.224000e+00	-1.159173e+02	4.408555e+00	0	0
176016	2.224000e+00	-1.171287e+02	-4.469800e-01	0	0
177969	2.224000e+00	-1.119262e+02	8.182205e+00	0	0
179922	2.224000e+00	-1.031539e+02	5.632892e+01	0	0
181875	2.224000e+00	-9.845130e+01	2.088359e+01	0	0
183828	2.224000e+00	-8.462023e+01	7.702431e+00	0	0
185781	2.224000e+00	-8.781174e+01	2.993892e+00	0	0
187734	2.224000e+00	-9.061714e+01	-4.567277e+01	0	0
189688	2.224000e+00	-9.043948e+01	-3.439272e+01	0	0
191641	2.224000e+00	-1.007426e+02	-2.746316e+01	0	0
193594	2.224000e+00	-1.015945e+02	1.422635e+01	0	0
195547	2.224000e+00	-1.031609e+02	1.011522e+01	0	0
197500	2.224000e+00	-1.110931e+02	1.331611e+01	0	0
199453	2.224000e+00	-1.205300e+02	4.944777e+01	0	0
201406	2.224000e+00	-1.032352e+02	6.317515e+01	0	0
203359	2.224000e+00	-7.703027e+01	5.903704e+00	0	0
205313	2.224000e+00	-6.884912e+01	6.144235e+00	0	0
207266	2.224000e+00	-6.485761e+01	-3.410199e+01	0	0
209219	2.224000e+00	-6.021894e+01	-6.040397e+01	0	0
211172	2.224000e+00	-7.656259e+01	-3.584269e+01	0	0
213125	2.224000e+00	-9.820349e+01	1.464679e+00	0	0
215078	2.224000e+00	-1.055847e+02	-3.708180e-01	0	0
217031	2.224000e+00	-1.094309e+02	-1.016198e+00	0	0
218984	2.224000e+00	-9.702968e+01	1.978850e+01	0	0
220938	2.224000e+00	-9.064661e+01	6.383760e+01	0	0
222891	2.224000e+00	-8.988158e+01	-1.231724e+01	0	0
224844	2.224000e+00	-8.357486e+01	-4.315515e+00	0	0
226797	2.224000e+00	-8.118178e+01	-1.873895e+01	0	0
228750	2.224000e+00	-7.917066e+01	-8.184326e+01	0	0
230703	2.224000e+00	-7.689231e+01	-1.229536e+01	0	0
232656	2.224000e+00	-7.638856e+01	-1.598556e+01	0	0
234609	2.224000e+00	-8.448831e+01	-1.121661e+01	0	0
236563	2.224000e+00	-8.715834e+01	-1.014618e+01	0	0
238516	2.224000e+00	-1.118209e+02	9.987454e-01	0	0
240469	2.224000e+00	-1.115532e+02	5.679359e+01	0	0
242422	2.224000e+00	-8.739655e+01	3.109688e+00	0	0
244375	2.224000e+00	-7.836142e+01	-2.847839e-01	0	0
246328	2.224000e+00	-8.125658e+01	-3.184498e+00	0	0
248281	2.224000e+00	-7.574620e+01	-4.396675e+01	0	0
250234	2.224000e+00	-8.907215e+01	-5.259999e+01	0	0
252188	2.224000e+00	-1.012430e+02	-2.146327e+01	0	0
254141	2.224000e+00	-1.041183e+02	2.754438e+00	0	0
256094	2.224000e+00	-1.162129e+02	-4.962202e-01	0	0
258047	2.224000e+00	-1.223568e+02	6.966524e+00	0	0
260000	2.224000e+00	-1.217546e+02	5.462025e+01	0	0
261953	2.224000e+00	-1.151855e+02	2.233784e+01	0	0
263906	2.224000e+00	-9.968102e+01	4.047322e+00	0	0
265859	2.224000e+00	-8.967961e+01	-2.872926e-01	0	0
267813	2.224000e+00	-8.143459e+01	-4.962404e+01	0	0
269766	2.224000e+00	-8.105582e+01	-4.406391e+01	0	0
271719	2.224000e+00	-1.088952e+02	-3.119558e+01	0	0
273672	2.224000e+00	-1.023964e+02	9.587159e+00	0	0
275625	2.224000e+00	-1.120713e+02	5.508792e+00	0	0
277578	2.224000e+00	-1.141914e+02	1.035795e+01	0	0
279531	2.224000e+00	-1.142418e+02	5.262590e+01	0	0
281484	2.224000e+00	-1.035273e+02	5.697354e+01	0	0
283438	2.224000e+00	-9.665665e+01	3.684131e+00	0	0
285391	2.224000e+00	-9.138246e+01	3.556448e+00	0	0
287344	2.224000e+00	-8.821533e+01	-4.217419e+01	0	0
289297	2.224000e+00	-1.036035e+02	-5.705487e+01	0	0
291250	2.224000e+00	-1.021144e+02	-5.108692e+01	0	0
293203	2.224000e+00	-9.680550e+01	1.407910e+01	0	0
295156	2.224000e+00	-1.021609e+02	1.098883e+01	0	0
297109	2.224000e+00	-1.029068e+02	1.076788e+01	0	0
299063	2.223870e+00	-1.047616e+02	2.006748e+01	0	0
301016	2.223000e+00	-1.102822e+02	7.583473e+01	0	0
302969	2.223130e+00	-1.038420e+02	-6.076666e+00	0	0
304922	2.223870e+00	-9.567539e+01	9.915772e-01	0	0
306875	2.223130e+00	-8.920481e+01	-1.448415e+01	0	0
308828	2.224000e+00	-1.001437e+02	-8.480894e+01	0	0
310781	2.224000e+00	-1.009280e+02	-3.911694e+01	0	0
312734	2.224000e+00	-1.033814e+02	-2.414567e+01	0	0
314688	2.223870e+00	-1.123947e+02	-2.450275e+01	0	0
316641	2.223130e+00	-1.275145e+02	-2.336628e+01	0	0
318594	2.224000e+00	-1.264187e+02	-8.003365e+00	0	0
320547	2.223870e+00	-1.165503e+02	4.637308e+01	0	0
322500	2.223000e+00	-1.042697e+02	2.434462e-01	0	0
324453	2.223000e+00	-1.011143e+02	-4.686509e+00	0	0
326406	2.223130e+00	-1.089491e+02	-4.908120e+00	0	0
328359	2.224000e+00	-1.097259e+02	-5.112082e+01	0	0
330313	2.224000e+00	-1.149985e+02	-3.337076e+01	0	0
332266	2.224000e+00	-1.240096e+02	-2.189124e+01	0	0
334219	2.224000e+00	-1.351160e+02	5.834689e+00	0	0
336172	2.223869e+00	-1.295816e+02	-5.592836e-01	0	0
338125	2.223000e+00	-1.438318e+02	5.301848e+00	0	0
340078	2.223000e+00	-1.456133e+02	5.027857e+01	0	0
342031	2.223131e+00	-1.207660e+02	6.259234e+00	0	0
343984	2.223869e+00	-1.161541e+02	-5.418496e-01	0	0
345938	2.223000e+00	-9.797386e+01	-3.082089e+00	0	0
347891	2.223000e+00	-9.168336e+01	-4.254697e+01	0	0
349844	2.223000e+00	-1.129256e+02	-5.169207e+01	0	0
351797	2.223000e+00	-1.046449e+02	-1.828720e+01	0	0
353750	2.223000e+00	-1.122422e+02	2.052193e+00	0	0
355703	2.223000e+00	-1.152972e+02	-1.990077e+00	0	0
357656	2.223000e+00	-1.292119e+02	5.325202e+00	0	0
359609	2.223000e+00	-1.255979e+02	6.564783e+01	0	0
361563	2.223000e+00	-1.292791e+02	4.683919e+01	0	0
363516	2.223000e+00	-1.212616e+02	-1.222609e-01	0	0
365469	2.223000e+00	-1.008307e+02	1.295000e+00	0	0
367422	2.223000e+00	-1.281908e+02	-4.341209e+01	0	0
369375	2.223000e+00	-1.092061e+02	-6.502239e+01	0	0
371328	2.223000e+00	-1.189376e+02	-4.130801e+01	0	0
373281	2.223000e+00	-1.207560e+02	1.192429e+01	0	0
375234	2.223000e+00	-1.172462e+02	9.106904e+00	0	0
377188	2.223000e+00	-1.218800e+02	7.439970e+00	0	0
379141	2.223000e+00	-1.251927e+02	2.167698e+01	0	0
381094	2.223000e+00	-1.227342e+02	8.055074e+01	0	0
383047	2.223000e+00	-1.021543e+02	5.759470e+00	0	0
385000	2.223000e+00	-1.008046e+02	7.595279e+00	0	0
386953	2.223000e+00	-9.585229e+01	-2.078923e+01	0	0
388906	2.223000e+00	-9.318279e+01	-9.025901e+01	0	0
390859	2.223000e+00	-1.037242e+02	-4.513862e+01	0	0
392813	2.223000e+00	-9.379272e+01	-2.579562e+00	0	0
394766	2.223133e+00	-9.720997e+01	2.282298e+01	0	0
396719	2.223867e+00	-8.425525e+01	5.067416e+01	0	0
398672	2.223000e+00	-3.563321e+01	8.517374e+01	0	0
400625	2.223000e+00	2.157530e+00	1.203226e+02	0	0
402578	2.223000e+00	1.844686e+01	1.017039e+02	0	0
404531	2.223000e+00	4.465015e+01	4.620835e+00	0	0
406484	2.223000e+00	5.046882e+01	-1.039514e+02	0	0
408438	2.223000e+00	2.819721e+01	-2.110772e+02	0	0
410391	2.223000e+00	2.217073e+01	-2.424681e+02	0	0
412344	2.223000e+00	1.143413e+01	-1.806661e+02	0	0
414297	2.223000e+00	4.950675e+00	-7.263427e+01	0	0
416250	2.223000e+00	6.771314e+00	2.690427e+01	0	0
418203	2.223000e+00	3.044455e+01	1.007021e+02	0	0
420156	2.223133e+00	4.576648e+01	9.341647e+01	0	0
422109	2.223867e+00	7.279354e+01	5.409360e+01	0	0
424063	2.223000e+00	8.368734e+01	3.095449e+01	0	0
426016	2.223000e+00	8.499951e+01	-3.374899e+00	0	0
427969	2.223000e+00	8.142057e+01	-4.329594e+01	0	0
429922	2.223000e+00	9.006587e+01	-4.198565e+01	0	0
431875	2.223000e+00	9.065579e+01	-1.665145e+01	0	0
433828	2.223000e+00	1.005764e+02	-1.029824e+01	0	0
435781	2.223000e+00	1.141182e+02	-9.181116e+00	0	0
437734	2.223000e+00	1.039083e+02	-1.065960e+00	0	0
439688	2.223000e+00	1.153396e+02	5.424314e+01	0	0
441641	2.223000e+00	1.119439e+02	4.402224e+01	0	0
443594	2.223000e+00	1.102373e+02	5.699196e+00	0	0
445547	2.223000e+00	1.263088e+02	1.141011e+00	0	0
447500	2.223000e+00	1.099914e+02	-6.709755e+01	0	0
449453	2.223000e+00	9.229045e+01	-6.494074e+01	0	0
451406	2.223000e+00	9.911741e+01	-4.571332e+01	0	0
453359	2.223000e+00	1.019843e+02	7.271103e+00	0	0
455313	2.223000e+00	7.834361e+01	3.428760e+00	0	0
457266	2.223000e+00	6.222164e+01	2.230136e+00	0	0
459219	2.223000e+00	6.284031e+01	2.026093e+01	0	0
461172	2.223000e+00	3.218497e+01	6.703168e+01	0	0
463125	2.223000e+00	2.374404e+01	-8.841429e+00	0	0
465078	2.223000e+00	1.410189e+01	4.183900e+00	0	0
467031	2.223000e+00	-5.862708e-02	-7.146574e+00	0	0
468984	2.223000e+00	-1.881983e+01	-7.304717e+01	0	0
470938	2.223000e+00	-3.856265e+01	-3.353958e+01	0	0
472891	2.223000e+00	-7.216472e+01	1.416506e+00	0	0
474844	2.223000e+00	-9.471781e+01	-8.417580e-01	0	0
476797	2.223000e+00	-1.112967e+02	-3.894538e+00	0	0
478750	2.223000e+00	-1.222670e+02	5.253369e+00	0	0
480703	2.223000e+00	-1.176222e+02	5.762972e+01	0	0
482656	2.223000e+00	-1.224830e+02	-8.098092e+00	0	0
484609	2.223000e+00	-1.191521e+02	1.949205e+00	0	0
486563	2.223000e+00	-1.149316e+02	-6.912275e+00	0	0
488516	2.223000e+00	-1.345439e+02	-5.659281e+01	0	0
490469	2.223136e+00	-1.354332e+02	-2.920675e+01	0	0
492422	2.223864e+00	-1.408106e+02	-1.837341e+01	0	0
494375	2.223136e+00	-1.481916e+02	1.555452e+00	0	0
496328	2.224000e+00	-1.546228e+02	-1.621018e+00	0	0
498281	2.224000e+00	-1.514581e+02	5.091341e+00	0	0
500234	2.223864e+00	-1.530427e+02	5.296673e+01	0	0
502188	2.223000e+00	-1.556322e+02	3.377318e+01	0	0
504141	2.223000e+00	-1.454016e+02	-3.732591e+00	0	0
506094	2.223000e+00	-1.357732e+02	-7.769842e+00	0	0
508047	2.223000e+00	-1.386688e+02	-5.714331e+01	0	0
510000	2.223000e+00	-1.593755e+02	-5.074157e+01	0	0
511953	2.223000e+00	-1.547738e+02	-2.844806e+01	0	0
513906	2.223136e+00	-1.625169e+02	3.350920e-02	0	0
515859	2.223864e+00	-1.572046e+02	-3.385381e+00	0	0
517813	2.223000e+00	-1.615008e+02	4.234932e+00	0	0
519766	2.223000e+00	-1.582989e+02	5.572201e+01	0	0
521719	2.223000e+00	-1.633306e+02	4.122104e+01	0	0
523672	2.223000e+00	-1.652686e+02	-3.106888e+00	0	0
525625	2.223000e+00	-1.546129e+02	-3.410013e+00	0	0
527578	2.223000e+00	-1.468328e+02	-4.322380e+01	0	0
529531	2.223137e+00	-1.578585e+02	-6.237494e+01	0	0
531484	2.224000e+00	-1.644713e+02	-4.144631e+01	0	0
533438	2.224000e+00	-1.849262e+02	-6.582147e-01	0	0
535391	2.224000e+00	-1.806686e+02	-5.494241e+00	0	0
537344	2.224000e+00	-1.862100e+02	-3.141051e-01	0	0
539297	2.224000e+00	-1.843464e+02	4.759866e+01	0	0
541250	2.223863e+00	-1.787525e+02	6.058213e+01	0	0
543203	2.223000e+00	-1.686486e+02	-9.138907e+00	0	0
545156	2.223137e+00	-1.509833e+02	9.409715e-02	0	0
547109	2.224000e+00	-1.494546e+02	-1.375642e+01	0	0
549063	2.223862e+00	-1.475724e+02	-7.854432e+01	0	0
551016	2.223138e+00	-1.646772e+02	-2.580315e+01	0	0
552969	2.224000e+00	-1.949859e+02	-2.384220e+00	0	0
554922	2.224000e+00	-2.303429e+02	-2.630784e+00	0	0
556875	2.224000e+00	-2.331309e+02	-5.426764e+00	0	0
558828	2.224000e+00	-1.935595e+02	6.419123e+00	0	0
560781	2.224000e+00	-1.294277e+02	6.520624e+01	0	0
562734	2.224000e+00	-3.544831e+01	-8.517687e+00	0	0
564688	2.224000e+00	6.193082e+01	1.489385e+00	0	0
566641	2.224000e+00	1.391969e+02	-1.114047e+01	0	0
568594	2.224000e+00	2.696811e+02	-7.048713e+01	0	0
570547	2.224000e+00	4.590520e+02	-3.069661e+01	0	0
572500	2.224000e+00	7.364786e+02	-1.847553e+00	0	0
574453	2.224000e+00	9.683325e+02	-3.189342e+00	0	0
576406	2.224000e+00	1.214554e+03	-4.934512e+00	0	0
578359	2.224000e+00	1.480651e+03	3.173053e+00	0	0
580313	2.224000e+00	1.699715e+03	5.376178e+01	0	0
582266	2.224000e+00	1.867134e+03	1.681899e+01	0	0
584219	2.224000e+00	1.844086e+03	-1.458704e+00	0	0
586172	2.224000e+00	1.717107e+03	-5.188771e+00	0	0
588125	2.224000e+00	1.429469e+03	-4.865410e+01	0	0
590078	2.224000e+00	1.068902e+03	-5.220111e+01	0	0
592031	2.224000e+00	8.771588e+02	-2.962521e+01	0	0
593984	2.224000e+00	6.839869e+02	7.448294e-01	0	0
595938	2.224000e+00	4.764195e+02	-3.980951e+00	0	0
597891	2.224000e+00	1.110437e+02	2.188069e+00	0	0
599844	2.224000e+00	-1.905845e+02	5.211716e+01	0	0
601797	2.224000e+00	-2.837481e+02	4.471317e+01	0	0
603750	2.224000e+00	-3.161508e+02	-3.769102e+00	0	0
605703	2.224000e+00	-2.796650e+02	-3.887462e+00	0	0
607656	2.224000e+00	-2.499078e+02	-5.165173e+01	0	0
609609	2.224000e+00	-2.372936e+02	-5.905488e+01	0	0
611563	2.224000e+00	-2.030016e+02	-4.713112e+01	0	0
613516	2.224000e+00	-1.574675e+02	5.532846e+00	0	0
615469	2.224000e+00	-1.444186e+02	1.424256e-01	0	0
617422	2.224000e+00	-1.150423e+02	8.492766e+00	0	0
619375	2.224000e+00	-1.038177e+02	6.607808e+01	0	0
621328	2.224000e+00	-8.969604e+01	6.108672e+01	0	0
623281	2.224000e+00	-8.391537e+01	-8.264816e+00	0	0
625234	2.224000e+00	-7.408825e+01	-2.258405e+00	0	0
627188	2.224000e+00	-8.545784e+01	-1.808226e+01	0	0
629141	2.224000e+00	-8.224046e+01	-8.197825e+01	0	0
631094	2.224000e+00	-9.098307e+01	-2.869928e+01	0	0
633047	2.224000e+00	-9.073883e+01	-7.749632e+00	0	0
635000	2.224000e+00	-9.848199e+01	-1.004378e+01	0	0
636953	2.224000e+00	-1.008308e+02	-1.354676e+01	0	0
638906	2.224000e+00	-9.807843e+01	1.050953e+00	0	0
640859	2.224000e+00	-9.346495e+01	6.153371e+01	0	0
642813	2.224000e+00	-7.788216e+01	-2.321571e+00	0	0
644766	2.224000e+00	-7.081290e+01	1.008946e+01	0	0
646719	2.224000e+00	-7.395273e+01	-2.397182e-01	0	0
648672	2.224000e+00	-8.271995e+01	-5.761286e+01	0	0
650625	2.224000e+00	-8.493810e+01	-3.194113e+01	0	0
652578	2.224000e+00	-9.310225e+01	-6.254067e+00	0	0
654531	2.224000e+00	-8.877875e+01	3.930772e+00	0	0
656484	2.224000e+00	-9.835312e+01	2.269724e+00	0	0
658438	2.224000e+00	-8.955983e+01	5.661239e+00	0	0
660391	2.224000e+00	-7.729020e+01	4.461410e+01	0	0
662344	2.224000e+00	-6.851019e+01	8.187256e+00	0	0
664297	2.224000e+00	-5.970253e+01	-1.360688e+01	0	0
666250	2.224000e+00	-5.530113e+01	-1.624185e+01	0	0
668203	2.224000e+00	-5.607444e+01	-3.720867e+01	0	0
670156	2.224000e+00	-5.778619e+01	-5.246878e+01	0	0
672109	2.224000e+00	-7.506374e+01	-2.205798e+01	0	0
674063	2.224000e+00	-7.711807e+01	1.320405e+01	0	0
676016	2.224000e+00	-7.991041e+01	4.131556e+01	0	0
677969	2.224000e+00	-8.679857e+01	6.327517e+01	0	0
679922	2.224000e+00	-7.276118e+01	1.016338e+02	0	0
681875	2.224000e+00	-7.193605e+01	9.883812e+01	0	0
683828	2.224000e+00	-6.697054e+01	1.276620e+01	0	0
685781	2.224000e+00	-5.279346e+01	-1.046290e+02	0	0
687734	2.224000e+00	-6.612567e+01	-2.200870e+02	0	0
689688	2.224000e+00	-6.909793e+01	-2.564941e+02	0	0
691641	2.224000e+00	-5.447923e+01	-2.099279e+02	0	0
693594	2.224000e+00	-5.865152e+01	-1.296374e+02	0	0
695547	2.224000e+00	-5.658134e+01	-3.296550e+01	0	0
697500	2.224000e+00	-6.198435e+01	7.326009e+01	0	0
699453	2.224000e+00	-6.081762e+01	1.228371e+02	0	0
701406	2.224000e+00	-5.471814e+01	1.053038e+02	0	0
703359	2.224000e+00	-5.040934e+01	4.823021e+01	0	0
705313	2.224000e+00	-2.872624e+01	1.571736e+01	0	0
707266	2.224000e+00	-3.603835e+01	-2.379583e+01	0	0
709219	2.224000e+00	-3.901924e+01	-7.512487e+01	0	0
711172	2.224143e+00	-3.060929e+01	-3.888716e+01	0	0
713125	2.225000e+00	-3.832967e+01	2.744027e+00	0	0
715078	2.225000e+00	-3.370073e+01	2.384870e+00	0	0
717031	2.225000e+00	-4.514772e+01	-8.715159e+00	0	0
718984	2.225000e+00	-3.730463e+01	6.768176e+00	0	0
720938	2.225000e+00	-2.989821e+01	6.354822e+01	0	0
722891	2.224856e+00	-3.069464e+01	-9.221863e+00	0	0
724844	2.224000e+00	-7.513011e+00	-2.031975e+00	0	0
726797	2.224000e+00	8.057127e+00	-1.815102e+01	0	0
728750	2.224000e+00	-5.389910e+00	-7.699968e+01	0	0
730703	2.224144e+00	-1.763807e+00	-3.137835e+01	0	0
732656	2.225000e+00	2.376097e+00	-6.082042e+00	0	0
734609	2.224856e+00	-1.197301e+00	-6.171011e+00	0	0
736563	2.224144e+00	-6.227401e+00	-7.996600e+00	0	0
738516	2.225000e+00	2.631358e+00	2.031215e+00	0	0
740469	2.225000e+00	1.764299e+01	4.922373e+01	0	0
742422	2.225000e+00	2.485139e+01	1.139203e+00	0	0
744375	2.225000e+00	1.827965e+01	-3.004231e+00	0	0
746328	2.225000e+00	1.904678e+01	-5.686000e+00	0	0
748281	2.225000e+00	2.983025e+01	-3.884653e+01	0	0
750234	2.225000e+00	2.142116e+01	-4.543738e+01	0	0
752188	2.225000e+00	5.399483e+01	-1.483105e+01	0	0
754141	2.225000e+00	6.097519e+01	3.166044e+00	0	0
756094	2.225000e+00	5.603486e+01	5.399641e-01	0	0
758047	2.225000e+00	5.471214e+01	8.011240e+00	0	0
760000	2.225000e+00	6.732822e+01	5.536718e+01	0	0
761953	2.225000e+00	7.818416e+01	3.585237e+01	0	0
763906	2.225000e+00	9.047752e+01	1.874853e-01	0	0
765859	2.225000e+00	8.935061e+01	-5.796086e+00	0	0
767813	2.225000e+00	8.313480e+01	-5.412065e+01	0	0
769766	2.225000e+00	9.583706e+01	-3.232853e+01	0	0
771719	2.225000e+00	9.488266e+01	-2.834567e+01	0	0
773672	2.225000e+00	1.028388e+02	7.645135e-01	0	0
775625	2.225000e+00	9.643715e+01	-2.358700e+00	0	0
777578	2.225000e+00	9.602448e+01	3.291374e+00	0	0
779531	2.225000e+00	1.169970e+02	4.742743e+01	0	0
781484	2.225000e+00	1.298528e+02	5.691125e+01	0	0
783438	2.225000e+00	1.462509e+02	-3.464712e+00	0	0
785391	2.225000e+00	1.640901e+02	3.390284e+00	0	0
787344	2.225000e+00	1.752759e+02	-1.571021e+01	0	0
789297	2.225000e+00	1.713649e+02	-6.674769e+01	0	0
791250	2.225000e+00	1.984082e+02	-3.878329e+01	0	0
793203	2.225000e+00	2.076061e+02	2.693861e+00	0	0
795156	2.225000e+00	1.989067e+02	-1.142421e+00	0	0
797109	2.225000e+00	2.225822e+02	-4.654401e+00	0	0
799063	2.225000e+00	2.402185e+02	6.482081e+00	0	0
801016	2.225000e+00	2.551763e+02	6.066436e+01	0	0
802969	2.225000e+00	2.773705e+02	-9.085364e+00	0	0
804922	2.225000e+00	2.892500e+02	2.030672e+00	0	0
806875	2.225000e+00	3.130230e+02	-1.063019e+01	0	0
808828	2.225000e+00	3.217069e+02	-6.433208e+01	0	0
810781	2.225000e+00	2.949910e+02	-4.821634e+00	0	0
812734	2.225000e+00	3.068375e+02	-3.922192e+00	0	0
814688	2.225000e+00	3.190688e+02	-2.514914e+00	0	0
816641	2.225000e+00	3.193887e+02	-5.728541e+00	0	0
818594	2.225000e+00	3.438813e+02	2.970464e+00	0	0
820547	2.225000e+00	3.551815e+02	5.373080e+01	0	0
822500	2.225000e+00	3.731930e+02	1.579020e+01	0	0
824453	2.225000e+00	3.982661e+02	-3.552453e+00	0	0
826406	2.225000e+00	4.178348e+02	-6.434549e+00	0	0
828359	2.225000e+00	4.213539e+02	-4.643560e+01	0	0
830313	2.225000e+00	4.248032e+02	-5.261729e+01	0	0
832266	2.225000e+00	4.343424e+02	-2.049424e+01	0	0
834219	2.225000e+00	4.286720e+02	-4.984225e-01	0	0
836172	2.225148e+00	4.326107e+02	-3.853790e+00	0	0
838125	2.225852e+00	4.277847e+02	4.745077e+00	0	0
840078	2.225000e+00	4.484434e+02	5.343829e+01	0	0
842031	2.225000e+00	4.496157e+02	2.397329e+01	0	0
843984	2.225000e+00	4.624443e+02	1.002102e-01	0	0
845938	2.225000e+00	4.584275e+02	-4.157968e+00	0	0
847891	2.225148e+00	4.514814e+02	-5.232017e+01	0	0
849844	2.225851e+00	4.319885e+02	-5.204040e+01	0	0
851797	2.225149e+00	4.225942e+02	-3.101774e+01	0	0
853750	2.226000e+00	4.057593e+02	4.819918e+00	0	0
855703	2.226000e+00	3.722541e+02	9.554647e-01	0	0
857656	2.226000e+00	3.559405e+02	5.720881e+00	0	0
859609	2.225851e+00	3.290994e+02	4.665331e+01	0	0
861563	2.225149e+00	3.107699e+02	5.996389e+01	0	0
863516	2.226000e+00	2.910303e+02	-6.008346e-01	0	0
865469	2.226000e+00	2.815721e+02	5.535509e+00	0	0
867422	2.226000e+00	2.501477e+02	-1.744932e+01	0	0
869375	2.226000e+00	2.122820e+02	-6.875707e+01	0	0
871328	2.226000e+00	1.891803e+02	-5.514214e+01	0	0
873281	2.226000e+00	1.544712e+02	7.530385e+00	0	0
875234	2.226000e+00	1.263801e+02	1.545376e+00	0	0
877188	2.226000e+00	8.785578e+01	-6.005898e-01	0	0
879141	2.226000e+00	7.146984e+01	1.221807e+01	0	0
881094	2.226000e+00	5.764850e+01	7.127699e+01	0	0
883047	2.226000e+00	4.086202e+01	-6.729258e+00	0	0
885000	2.226000e+00	4.112939e+01	2.954544e+00	0	0
886953	2.226000e+00	1.358918e+01	-1.141190e+01	0	0
888906	2.226000e+00	2.652367e+00	-7.226504e+01	0	0
890859	2.226000e+00	-3.909640e-01	-1.690105e+01	0	0
892813	2.226000e+00	-3.675477e+01	-7.960960e+00	0	0
894766	2.226000e+00	-4.354818e+01	-9.486987e+00	0	0
896719	2.226000e+00	-5.179068e+01	-1.206338e+01	0	0
898672	2.226000e+00	-8.026956e+01	-2.977569e-01	0	0
900625	2.226000e+00	-7.439559e+01	5.343555e+01	0	0
902578	2.226000e+00	-6.851722e+01	9.567158e+00	0	0
904531	2.226000e+00	-7.461915e+01	-5.504746e+00	0	0
906484	2.226000e+00	-8.032408e+01	-1.313653e+01	0	0
908438	2.226000e+00	-9.258124e+01	-5.916937e+01	0	0
910391	2.226000e+00	-9.344295e+01	-2.272317e+01	0	0
912344	2.226000e+00	-9.432937e+01	-2.152546e+01	0	0
914297	2.226000e+00	-1.335141e+02	2.737983e+00	0	0
916250	2.226000e+00	-1.195102e+02	-1.001857e+00	0	0
918203	2.226000e+00	-1.481072e+02	8.117539e+00	0	0
920156	2.226000e+00	-1.322088e+02	5.494149e+01	0	0
922109	2.226000e+00	-1.168677e+02	1.853267e+01	0	0
924063	2.226000e+00	-1.135042e+02	-1.940741e+00	0	0
926016	2.226000e+00	-1.039978e+02	-6.194983e+00	0	0
927969	2.226000e+00	-1.104871e+02	-4.846197e+01	0	0
929922	2.226000e+00	-1.175431e+02	-5.619377e+01	0	0
931875	2.226000e+00	-1.407833e+02	-3.243709e+01	0	0
933828	2.226000e+00	-1.510072e+02	9.226485e-01	0	0
935781	2.226000e+00	-1.597852e+02	-3.093963e+00	0	0
937734	2.226000e+00	-1.533360e+02	7.201763e+00	0	0
939688	2.226000e+00	-1.534968e+02	6.689856e+01	0	0
941641	2.226000e+00	-1.426581e+02	4.921182e+01	0	0
943594	2.226000e+00	-1.362399e+02	-1.885367e+00	0	0
945547	2.226000e+00	-1.307651e+02	3.262542e+00	0	0
947500	2.226000e+00	-1.369047e+02	-2.148996e+01	0	0
949453	2.226152e+00	-1.434158e+02	-7.054090e+01	0	0
951406	2.227000e+00	-1.418867e+02	-4.839058e+01	0	0
953359	2.227000e+00	-1.644732e+02	8.630106e+00	0	0
955313	2.227000e+00	-1.726241e+02	1.090017e+01	0	0
957266	2.227000e+00	-1.883599e+02	6.258644e+00	0	0
959219	2.227000e+00	-1.745539e+02	1.944034e+01	0	0
961172	2.227000e+00	-1.564942e+02	7.686370e+01	0	0
963125	2.227000e+00	-1.566742e+02	-2.958635e+00	0	0
965078	2.227000e+00	-1.387040e+02	1.234156e+01	0	0
967031	2.227000e+00	-1.359226e+02	-9.265339e+00	0	0
968984	2.227000e+00	-1.511108e+02	-7.394524e+01	0	0
970938	2.227000e+00	-1.503179e+02	-2.149126e+01	0	0
972891	2.227000e+00	-1.562024e+02	-2.525894e+00	0	0
974844	2.227000e+00	-1.613984e+02	2.205038e+01	0	0
976797	2.227000e+00	-1.599152e+02	4.465304e+01	0	0
978750	2.227000e+00	-1.822491e+02	7.963452e+01	0	0
980703	2.227000e+00	-1.741771e+02	1.108391e+02	0	0
982656	2.227000e+00	-1.521574e+02	8.999427e+01	0	0
984609	2.227000e+00	-1.303178e+02	-4.959008e+00	0	0
986563	2.227000e+00	-1.413443e+02	-1.100161e+02	0	0
988516	2.227000e+00	-1.271757e+02	-2.139495e+02	0	0
990469	2.227000e+00	-1.525441e+02	-2.465731e+02	0	0
992422	2.227000e+00	-1.587365e+02	-1.917909e+02	0	0
994375	2.227000e+00	-1.738164e+02	-9.313994e+01	0	0
996328	2.227000e+00	-1.593165e+02	7.804537e-01	0	0
998281	2.227000e+00	-1.678646e+02	8.253489e+01	0	0
1000234	2.227000e+00	-1.702642e+02	1.043030e+02	0	0
1002188	2.227000e+00	-1.532619e+02	8.047691e+01	0	0
1004141	2.227000e+00	-1.449606e+02	4.061071e+01	0	0
1006094	2.227000e+00	-1.381269e+02	1.667404e+01	0	0
1008047	2.227000e+00	-1.538997e+02	-3.214893e+01	0	0
1010000	2.227000e+00	-1.529031e+02	-3.820584e+01	0	0
1011953	2.227000e+00	-1.592390e+02	-3.090301e+01	0	0
1013906	2.227000e+00	-1.614045e+02	-2.142218e+00	0	0
1015859	2.227000e+00	-1.612416e+02	-4.100760e+00	0	0
1017813	2.227000e+00	-1.671961e+02	3.231375e+00	0	0
1019766	2.227000e+00	-1.618328e+02	5.218830e+01	0	0
1021719	2.227000e+00	-1.467661e+02	5.835281e+01	0	0
1023672	2.227000e+00	-1.630334e+02	3.747351e+00	0	0
1025625	2.227000e+00	-1.467490e+02	8.368029e+00	0	0
1027578	2.227000e+00	-1.608936e+02	-2.729640e+01	0	0
1029531	2.227000e+00	-1.573755e+02	-7.265959e+01	0	0
1031484	2.227000e+00	-1.391792e+02	-3.734728e+01	0	0
1033438	2.227000e+00	-1.565210e+02	2.487499e+00	0	0
1035391	2.227156e+00	-1.552810e+02	2.561663e-01	0	0
1037344	2.227844e+00	-1.499810e+02	9.864030e-01	0	0
1039297	2.227156e+00	-1.654911e+02	2.775171e+01	0	0
1041250	2.228000e+00	-1.650598e+02	6.495341e+01	0	0
1043203	2.228000e+00	-1.536408e+02	-1.168382e+01	0	0
1045156	2.228000e+00	-1.460331e+02	-4.581522e+00	0	0
1047109	2.228000e+00	-1.427356e+02	-1.752784e+01	0	0
1049063	2.228000e+00	-1.506490e+02	-7.566376e+01	0	0
1051016	2.228000e+00	-1.658933e+02	-2.442520e+01	0	0
1052969	2.228000e+00	-1.709928e+02	-9.528955e+00	0	0
1054922	2.228000e+00	-1.679729e+02	-5.868739e+00	0	0
1056875	2.228000e+00	-1.541333e+02	-3.943095e+00	0	0
1058828	2.228000e+00	-1.620403e+02	1.141000e+01	0	0
1060781	2.228000e+00	-1.541949e+02	5.688204e+01	0	0
1062734	2.228000e+00	-1.492846e+02	-1.029378e+00	0	0
1064688	2.228000e+00	-1.311427e+02	7.032401e+00	0	0
1066641	2.228000e+00	-1.437132e+02	-1.907502e+00	0	0
1068594	2.228000e+00	-1.634686e+02	-5.091763e+01	0	0
1070547	2.228000e+00	-1.585554e+02	-4.378112e+01	0	0
1072500	2.228000e+00	-1.767344e+02	-2.647503e+01	0	0
1074453	2.228000e+00	-1.806895e+02	3.151191e+00	0	0
1076406	2.228000e+00	-1.783797e+02	-1.215911e+00	0	0
1078359	2.228000e+00	-1.819683e+02	7.609128e+00	0	0
1080313	2.228000e+00	-1.695195e+02	5.310173e+01	0	0
1082266	2.228000e+00	-1.598861e+02	2.782660e+01	0	0
1084219	2.228000e+00	-1.530347e+02	1.137786e+00	0	0
1086172	2.228000e+00	-1.584810e+02	-4.893169e+00	0	0
1088125	2.228000e+00	-1.775238e+02	-5.097884e+01	0	0
1090078	2.228000e+00	-1.811987e+02	-3.820190e+01	0	0
1092031	2.228000e+00	-1.798959e+02	-3.372284e+01	0	0
1093984	2.228000e+00	-1.959030e+02	3.089519e+00	0	0
1095938	2.228000e+00	-2.074807e+02	-2.892317e+00	0	0
1097891	2.228000e+00	-1.847041e+02	3.945460e+00	0	0
1099844	2.228000e+00	-1.884989e+02	5.071544e+01	0	0
1101797	2.228000e+00	-1.864747e+02	4.345192e+01	0	0
1103750	2.228000e+00	-1.663012e+02	-7.548887e+00	0	0
1105703	2.228000e+00	-1.693932e+02	-5.947666e+00	0	0
1107656	2.228000e+00	-1.710792e+02	-3.576532e+01	0	0
1109609	2.228158e+00	-1.786515e+02	-6.538876e+01	0	0
1111563	2.228841e+00	-1.905906e+02	-3.962305e+01	0	0
1113516	2.228000e+00	-1.871446e+02	-2.695476e+00	0	0
1115469	2.228159e+00	-1.779944e+02	-5.833392e+00	0	0
1117422	2.229000e+00	-1.776272e+02	-2.725403e+00	0	0
1119375	2.229000e+00	-1.746372e+02	2.991425e+01	0	0
1121328	2.229000e+00	-1.638969e+02	5.356919e+01	0	0
1123281	2.228841e+00	-1.604931e+02	-1.099580e+01	0	0
1125234	2.228159e+00	-1.400838e+02	-1.707904e+00	0	0
1127188	2.229000e+00	-1.731544e+02	-1.535502e+01	0	0
1129141	2.229000e+00	-1.881456e+02	-6.906771e+01	0	0
1131094	2.229000e+00	-1.813214e+02	-1.936493e+01	0	0
1133047	2.229000e+00	-1.808059e+02	-5.175570e+00	0	0
1135000	2.229000e+00	-1.953545e+02	-3.234562e+00	0	0
1136953	2.229000e+00	-1.970565e+02	-5.758793e+00	0	0
1138906	2.229000e+00	-2.006510e+02	5.593469e+00	0	0
1140859	2.229000e+00	-2.077864e+02	5.021164e+01	0	0
1142813	2.229000e+00	-1.856816e+02	-8.538050e+00	0	0
1144766	2.229000e+00	-1.668536e+02	1.097731e+00	0	0
1146719	2.229000e+00	-1.631998e+02	-9.124373e+00	0	0
1148672	2.229000e+00	-1.834933e+02	-5.638308e+01	0	0
1150625	2.229000e+00	-1.832537e+02	-2.967242e+01	0	0
1152578	2.229000e+00	-1.950397e+02	-1.283120e+01	0	0
1154531	2.229000e+00	-2.038946e+02	-1.995938e+00	0	0
1156484	2.229000e+00	-2.228123e+02	-5.307609e+00	0	0
1158438	2.229000e+00	-2.051550e+02	3.247418e+00	0	0
1160391	2.229000e+00	-1.965511e+02	4.991191e+01	0	0
1162344	2.229000e+00	-1.960855e+02	2.188648e+01	0	0
1164297	2.229000e+00	-1.797217e+02	-4.319583e+00	0	0
1166250	2.229000e+00	-1.880091e+02	-8.715258e+00	0	0
1168203	2.229000e+00	-1.914068e+02	-5.552298e+01	0	0
1170156	2.229000e+00	-2.137847e+02	-5.113535e+01	0	0
1172109	2.229000e+00	-2.265457e+02	-1.792588e+01	0	0
1174063	2.229000e+00	-2.174814e+02	-1.511196e+00	0	0
1176016	2.229161e+00	-2.069869e+02	-4.202484e+00	0	0
1177969	2.229839e+00	-2.079527e+02	2.886990e+00	0	0
1179922	2.229000e+00	-1.871677e+02	5.284115e+01	0	0
1181875	2.229000e+00	-1.762663e+02	4.748236e+01	0	0
1183828	2.229000e+00	-1.571770e+02	-5.104977e+00	0	0
1185781	2.229000e+00	-1.276081e+02	-7.722947e+00	0	0
1187734	2.229161e+00	-1.160964e+02	-6.033892e+01	0	0
1189688	2.230000e+00	-9.724792e+01	-6.593339e+01	0	0
1191641	2.230000e+00	-7.924461e+01	-4.818917e+01	0	0
1193594	2.230000e+00	-9.052214e+01	6.039250e+00	0	0
1195547	2.230000e+00	-8.518667e+01	7.998605e-01	0	0
1197500	2.230000e+00	-9.095660e+01	2.442337e+00	0	0
1199453	2.230000e+00	-1.009746e+02	3.387510e+01	0	0
1201406	2.230000e+00	-9.166954e+01	6.586601e+01	0	0
1203359	2.230000e+00	-7.029483e+01	-6.516530e+00	0	0
1205313	2.230000e+00	-4.853971e+01	5.849869e+00	0	0
1207266	2.230000e+00	-2.806118e+01	-1.089911e+01	0	0
1209219	2.230000e+00	-2.094260e+01	-7.377785e+01	0	0
1211172	2.230000e+00	-2.996546e+01	-1.897767e+01	0	0
1213125	2.230000e+00	-2.376262e+01	-6.468749e+00	0	0
1215078	2.230000e+00	-2.583441e+01	-5.266863e+00	0	0
1217031	2.230000e+00	-2.985562e+01	-7.493349e+00	0	0
1218984	2.230000e+00	-2.754367e+01	3.550629e+00	0	0
1220938	2.230000e+00	-2.429361e+00	5.256271e+01	0	0
1222891	2.230000e+00	2.162499e+01	-1.844927e+01	0	0
1224844	2.230000e+00	5.522545e+01	-4.343682e+00	0	0
1226797	2.230000e+00	5.786287e+01	-1.422958e+01	0	0
1228750	2.230000e+00	5.038438e+01	-6.714988e+01	0	0
1230703	2.230000e+00	4.202472e+01	-3.595011e+01	0	0
1232656	2.230000e+00	4.257040e+01	-1.971060e+01	0	0
1234609	2.230000e+00	4.102377e+01	1.472428e+00	0	0
1236563	2.230000e+00	2.567746e+01	-3.106114e+00	0	0
1238516	2.230000e+00	2.834504e+00	8.958946e+00	0	0
1240469	2.230000e+00	4.419814e+00	5.633570e+01	0	0
1242422	2.230000e+00	1.521432e+01	9.347817e-01	0	0
1244375	2.230000e+00	1.939687e+01	-1.325994e-01	0	0
1246328	2.230000e+00	1.755877e+01	4.116531e+00	0	0
1248281	2.230164e+00	3.554310e+00	-3.337129e+01	0	0
1250234	2.231000e+00	-4.077303e+01	-5.418560e+01	0	0
1252188	2.231000e+00	-7.542544e+01	-1.625033e+01	0	0
1254141	2.231000e+00	-9.978464e+01	2.267290e+00	0	0
1256094	2.231000e+00	-1.127084e+02	3.071296e+01	0	0
1258047	2.231000e+00	-1.505586e+02	4.820259e+01	0	0
1260000	2.231000e+00	-1.532551e+02	8.682314e+01	0	0
1261953	2.231000e+00	-1.532551e+02	1.093451e+02	0	0
1263906	2.231000e+00	-1.641167e+02	4.443781e+01	0	0
1265859	2.231000e+00	-1.687754e+02	-9.273030e+01	0	0
1267813	2.231000e+00	-2.066934e+02	-2.079891e+02	0	0
1269766	2.231000e+00	-2.092636e+02	-2.540722e+02	0	0
1271719	2.231000e+00	-2.071791e+02	-2.120613e+02	0	0
1273672	2.231000e+00	-2.191699e+02	-1.358691e+02	0	0
1275625	2.231000e+00	-2.327169e+02	-2.783558e+01	0	0
1277578	2.231000e+00	-2.423671e+02	8.619204e+01	0	0
1279531	2.231000e+00	-2.499912e+02	1.454687e+02	0	0
1281484	2.231000e+00	-2.413009e+02	1.240189e+02	0	0
1283438	2.231000e+00	-2.376440e+02	5.624675e+01	0	0
1285391	2.231000e+00	-2.215331e+02	1.336053e+01	0	0
1287344	2.231000e+00	-2.311750e+02	-3.252089e+01	0	0
1289297	2.231000e+00	-2.369507e+02	-7.790278e+01	0	0
1291250	2.231000e+00	-2.394725e+02	-3.745643e+01	0	0
1293203	2.231000e+00	-2.526051e+02	-1.388488e+01	0	0
1295156	2.231000e+00	-2.564439e+02	-2.252794e+00	0	0
1297109	2.231165e+00	-2.528888e+02	-1.274103e+01	0	0
1299063	2.231834e+00	-2.646656e+02	1.332118e+00	0	0
1301016	2.231000e+00	-2.463884e+02	5.488714e+01	0	0
1302969	2.231000e+00	-2.447439e+02	-1.363047e+01	0	0
1304922	2.231000e+00	-2.386083e+02	-3.409706e+00	0	0
1306875	2.231166e+00	-2.368564e+02	-2.034917e+01	0	0
1308828	2.232000e+00	-2.320907e+02	-7.423289e+01	0	0
1310781	2.232000e+00	-2.425938e+02	-2.245711e+01	0	0
1312734	2.232000e+00	-2.674169e+02	-1.316591e+01	0	0
1314688	2.232000e+00	-2.699812e+02	-1.075617e+01	0	0
1316641	2.232000e+00	-2.755316e+02	-1.136082e+01	0	0
1318594	2.232000e+00	-2.775115e+02	-5.127377e-01	0	0
1320547	2.232000e+00	-2.864330e+02	5.183724e+01	0	0
1322500	2.232000e+00	-2.716525e+02	3.273766e+01	0	0
1324453	2.232000e+00	-2.519951e+02	-1.798659e+00	0	0
1326406	2.232000e+00	-2.332202e+02	-4.257342e+00	0	0
1328359	2.232000e+00	-2.444544e+02	-4.914425e+01	0	0
1330313	2.232000e+00	-2.548686e+02	-5.049527e+01	0	0
1332266	2.232000e+00	-2.598230e+02	-2.981681e+01	0	0
1334219	2.232000e+00	-2.665480e+02	4.961923e-01	0	0
1336172	2.232000e+00	-2.572371e+02	-3.489033e+00	0	0
1338125	2.232000e+00	-2.787326e+02	8.092098e+00	0	0
1340078	2.232000e+00	-2.834435e+02	5.636363e+01	0	0
1342031	2.232000e+00	-3.219640e+02	2.272081e+01	0	0
1343984	2.232000e+00	-3.223253e+02	2.583185e+00	0	0
1345938	2.232000e+00	-3.103703e+02	-1.803368e+00	0	0
1347891	2.232000e+00	-3.068261e+02	-4.553264e+01	0	0
1349844	2.232000e+00	-2.704042e+02	-6.205633e+01	0	0
1351797	2.232000e+00	-1.902288e+02	-4.145126e+01	0	0
1353750	2.232168e+00	-1.035291e+02	1.038340e+01	0	0
1355703	2.233000e+00	-4.678025e+00	6.552200e+00	0	0
1357656	2.233000e+00	1.122463e+02	6.176053e+00	0	0
1359609	2.232832e+00	2.640868e+02	4.362584e+01	0	0
1361563	2.232000e+00	4.982239e+02	6.341084e+01	0	0
1363516	2.232168e+00	7.729851e+02	1.253687e+00	0	0
1365469	2.233000e+00	1.028311e+03	1.071343e+01	0	0
1367422	2.233000e+00	1.281383e+03	-1.631819e+01	0	0
1369375	2.233000e+00	1.515515e+03	-7.533074e+01	0	0
1371328	2.233000e+00	1.701673e+03	-4.420271e+01	0	0
1373281	2.233000e+00	1.745552e+03	8.735028e+00	0	0
1375234	2.233000e+00	1.606816e+03	2.962613e+01	0	0
1377188	2.233000e+00	1.394782e+03	5.339068e+01	0	0
1379141	2.233000e+00	1.054770e+03	8.837756e+01	0	0
1381094	2.233000e+00	8.788381e+02	1.202870e+02	0	0
1383047	2.233000e+00	6.424712e+02	9.542828e+01	0	0
1385000	2.233000e+00	5.165801e+02	-6.698511e+00	0	0
1386953	2.233000e+00	3.150521e+02	-1.183730e+02	0	0
1388906	2.233000e+00	-2.502432e+01	-2.222815e+02	0	0
1390859	2.233000e+00	-1.952909e+02	-2.376290e+02	0	0
1392813	2.233000e+00	-3.035409e+02	-1.650920e+02	0	0
1394766	2.233000e+00	-3.634968e+02	-6.390855e+01	0	0
1396719	2.233000e+00	-4.015325e+02	3.761302e+01	0	0
1398672	2.233000e+00	-3.850980e+02	1.018555e+02	0	0
1400625	2.233000e+00	-3.473584e+02	8.994018e+01	0	0
1402578	2.233000e+00	-3.167968e+02	4.643805e+01	0	0
1404531	2.233000e+00	-2.852769e+02	1.553773e+01	0	0
1406484	2.233000e+00	-2.358935e+02	-2.420266e+01	0	0
1408438	2.233170e+00	-2.271674e+02	-5.140950e+01	0	0
1410391	2.233830e+00	-2.024340e+02	-3.711536e+01	0	0
1412344	2.233170e+00	-2.178070e+02	-1.857675e+01	0	0
1414297	2.234000e+00	-2.096522e+02	-1.133442e+01	0	0
1416250	2.234000e+00	-2.068715e+02	-9.456381e+00	0	0
1418203	2.234000e+00	-2.090501e+02	7.706432e+00	0	0
1420156	2.234000e+00	-2.173316e+02	6.391698e+01	0	0
1422109	2.234000e+00	-1.925582e+02	4.048544e+01	0	0
1424063	2.234000e+00	-1.900197e+02	-1.632023e+00	0	0
1426016	2.234000e+00	-1.933806e+02	-7.921399e+00	0	0
1427969	2.234000e+00	-1.851718e+02	-5.381843e+01	0	0
1429922	2.234000e+00	-2.005295e+02	-6.112294e+01	0	0
1431875	2.234000e+00	-2.086698e+02	-2.776580e+01	0	0
1433828	2.234000e+00	-2.024421e+02	5.099940e+00	0	0
1435781	2.234000e+00	-2.077973e+02	-2.834504e-01	0	0
1437734	2.234000e+00	-2.291088e+02	2.687888e+00	0	0
1439688	2.234000e+00	-2.196905e+02	5.263013e+01	0	0
1441641	2.234000e+00	-2.088021e+02	5.783347e+01	0	0
1443594	2.234000e+00	-2.098486e+02	-8.366056e+00	0	0
1445547	2.234000e+00	-1.854850e+02	1.732929e+00	0	0
1447500	2.234000e+00	-1.732593e+02	-1.355258e+01	0	0
1449453	2.234171e+00	-1.835731e+02	-7.769501e+01	0	0
1451406	2.234829e+00	-1.836833e+02	-4.041952e+01	0	0
1453359	2.234000e+00	-1.911130e+02	8.575803e-02	0	0
1455313	2.234172e+00	-1.834666e+02	1.301468e+00	0	0
1457266	2.235000e+00	-1.996781e+02	-7.563705e-01	0	0
1459219	2.235000e+00	-1.986692e+02	1.096054e+01	0	0
1461172	2.235000e+00	-1.923562e+02	6.632326e+01	0	0
1463125	2.235000e+00	-1.830203e+02	-7.381612e+00	0	0
1465078	2.235000e+00	-1.734545e+02	3.235808e+00	0	0
1467031	2.235000e+00	-1.660685e+02	-4.805896e+00	0	0
1468984	2.235000e+00	-1.617861e+02	-5.057158e+01	0	0
1470938	2.235000e+00	-1.667244e+02	-1.237386e+01	0	0
1472891	2.235000e+00	-1.790554e+02	6.669431e+00	0	0
1474844	2.235000e+00	-1.837610e+02	3.598264e+01	0	0
1476797	2.235000e+00	-1.880467e+02	5.866479e+01	0	0
1478750	2.235000e+00	-1.912784e+02	8.257433e+01	0	0
1480703	2.235000e+00	-1.616018e+02	1.159707e+02	0	0
1482656	2.235000e+00	-1.492171e+02	1.056721e+02	0	0
1484609	2.235000e+00	-1.484458e+02	2.752125e+01	0	0
1486563	2.235000e+00	-1.357133e+02	-1.005891e+02	0	0
1488516	2.235000e+00	-1.341536e+02	-2.174175e+02	0	0
1490469	2.235000e+00	-1.365549e+02	-2.553938e+02	0	0
1492422	2.235000e+00	-1.332498e+02	-1.871267e+02	0	0
1494375	2.235173e+00	-1.472751e+02	-7.178873e+01	0	0
1496328	2.235827e+00	-1.431726e+02	3.352724e+01	0	0
1498281	2.235000e+00	-1.529964e+02	1.081056e+02	0	0
1500234	2.235173e+00	-1.427807e+02	1.001024e+02	0	0
1502188	2.236000e+00	-1.388925e+02	5.927848e+01	0	0
1504141	2.236000e+00	-1.259711e+02	3.021437e+01	0	0
1506094	2.236000e+00	-1.097322e+02	-5.361830e+00	0	0
1508047	2.236000e+00	-1.065747e+02	-4.069727e+01	0	0
1510000	2.236000e+00	-1.068518e+02	-3.955562e+01	0	0
1511953	2.236000e+00	-1.083783e+02	-1.477459e+01	0	0
1513906	2.236000e+00	-1.191929e+02	2.564413e+00	0	0
1515859	2.236000e+00	-1.295420e+02	-7.590842e+00	0	0
1517813	2.236000e+00	-1.344576e+02	-4.168212e+00	0	0
1519766	2.236000e+00	-1.179919e+02	5.585356e+01	0	0
1521719	2.236000e+00	-1.052839e+02	4.834349e+01	0	0
1523672	2.236000e+00	-9.671648e+01	-7.662219e+00	0	0
1525625	2.236000e+00	-6.615074e+01	5.261383e+00	0	0
1527578	2.236000e+00	-7.842296e+01	-5.393280e+00	0	0
1529531	2.236000e+00	-7.888446e+01	-7.031196e+01	0	0
1531484	2.236000e+00	-8.865533e+01	-4.052591e+01	0	0
1533438	2.236000e+00	-9.301705e+01	5.351715e+00	0	0
1535391	2.236000e+00	-9.205474e+01	3.464806e+00	0	0
1537344	2.236000e+00	-6.584429e+01	1.728823e+00	0	0
1539297	2.236175e+00	-5.695204e+01	1.686404e+01	0	0
1541250	2.237000e+00	-5.193511e+01	6.837202e+01	0	0
1543203	2.237000e+00	-3.225674e+01	-2.989984e+00	0	0
1545156	2.237000e+00	-1.979772e+01	8.028119e+00	0	0
1547109	2.237000e+00	-1.654613e+01	-8.480322e+00	0	0
1549063	2.237000e+00	-2.216938e+01	-6.695274e+01	0	0
1551016	2.237000e+00	-7.865160e+00	-2.312487e+01	0	0
1552969	2.237000e+00	-1.256249e+01	3.319044e+00	0	0
1554922	2.237000e+00	-1.764421e+01	3.637901e+00	0	0
1556875	2.237000e+00	-1.800996e+01	-4.871492e+00	0	0
1558828	2.237000e+00	-1.830579e+01	3.655417e+00	0	0
1560781	2.237000e+00	6.702930e+00	4.826530e+01	0	0
1562734	2.237000e+00	2.703569e+01	-3.248560e+00	0	0
1564688	2.237000e+00	3.083173e+01	-7.879208e+00	0	0
1566641	2.237000e+00	4.848469e+01	-1.008755e+01	0	0
1568594	2.237000e+00	5.170197e+01	-2.899783e+01	0	0
1570547	2.237000e+00	6.516867e+01	-3.612513e+01	0	0
1572500	2.237176e+00	6.803583e+01	-1.667560e+01	0	0
1574453	2.238000e+00	6.206177e+01	2.326758e+01	0	0
1576406	2.238000e+00	7.746772e+01	4.685631e+01	0	0
1578359	2.238000e+00	9.061290e+01	6.884984e+01	0	0
1580313	2.238000e+00	9.734436e+01	1.041824e+02	0	0
1582266	2.238000e+00	1.059572e+02	9.735234e+01	0	0
1584219	2.238000e+00	1.318588e+02	2.225113e+01	0	0
1586172	2.238000e+00	1.466938e+02	-1.027342e+02	0	0
1588125	2.238000e+00	1.565653e+02	-2.129708e+02	0	0
1590078	2.238000e+00	1.586763e+02	-2.533126e+02	0	0
1592031	2.238000e+00	1.791747e+02	-2.125896e+02	0	0
1593984	2.238000e+00	1.603385e+02	-1.324169e+02	0	0
1595938	2.238000e+00	1.651804e+02	-2.795568e+01	0	0
1597891	2.238000e+00	1.778412e+02	7.368431e+01	0	0
1599844	2.238000e+00	1.952876e+02	1.367632e+02	0	0
1601797	2.238000e+00	2.115966e+02	1.178821e+02	0	0
1603750	2.238000e+00	2.334492e+02	5.676986e+01	0	0
1605703	2.238000e+00	2.655458e+02	2.522214e+01	0	0
1607656	2.238177e+00	2.709316e+02	-1.584912e+01	0	0
1609609	2.239000e+00	2.794131e+02	-5.266721e+01	0	0
1611563	2.239000e+00	2.723430e+02	-1.952171e+01	0	0
1613516	2.239000e+00	2.745490e+02	-1.186638e+01	0	0
1615469	2.239000e+00	2.813363e+02	-1.111862e+01	0	0
1617422	2.239000e+00	2.862488e+02	-1.478976e+01	0	0
1619375	2.239000e+00	2.998805e+02	4.410864e+00	0	0
1621328	2.239000e+00	3.098230e+02	4.697752e+01	0	0
1623281	2.239000e+00	3.241146e+02	-2.961860e+01	0	0
1625234	2.239000e+00	3.509050e+02	-1.451526e+01	0	0
1627188	2.239000e+00	3.597985e+02	-3.159279e+01	0	0
1629141	2.239000e+00	3.592174e+02	-8.636023e+01	0	0
1631094	2.239000e+00	3.537842e+02	-1.711978e+01	0	0
1633047	2.239000e+00	3.443497e+02	-1.862413e+01	0	0
1635000	2.239000e+00	3.358582e+02	-1.271105e+01	0	0
1636953	2.239179e+00	3.400805e+02	-1.364698e+01	0	0
1638906	2.239821e+00	3.328504e+02	1.927982e+00	0	0
1640859	2.239179e+00	3.262294e+02	5.318631e+01	0	0
1642813	2.240000e+00	3.184911e+02	-4.469008e+00	0	0
1644766	2.240000e+00	3.294531e+02	-1.668699e+00	0	0
1646719	2.240000e+00	3.204178e+02	-7.349529e+00	0	0
1648672	2.240000e+00	2.909343e+02	-4.653929e+01	0	0
1650625	2.240000e+00	2.540084e+02	-4.836758e+01	0	0
1652578	2.240000e+00	2.221371e+02	-8.883589e+00	0	0
1654531	2.240000e+00	1.813183e+02	7.752406e+00	0	0
1656484	2.240000e+00	1.538271e+02	4.656168e+00	0	0
1658438	2.240000e+00	1.346895e+02	1.496556e+01	0	0
1660391	2.240000e+00	1.054753e+02	6.265075e+01	0	0
1662344	2.240000e+00	6.912825e+01	3.452849e+01	0	0
1664297	2.240000e+00	6.481733e+01	4.360380e+00	0	0
1666250	2.240000e+00	4.805910e+01	-2.714798e+00	0	0
1668203	2.240180e+00	2.705017e+01	-5.150193e+01	0	0
1670156	2.241000e+00	1.029924e+01	-4.971922e+01	0	0
1672109	2.241000e+00	-4.628238e+00	-3.281350e+01	0	0
1674063	2.241000e+00	-3.382314e+01	3.077513e+00	0	0
1676016	2.241000e+00	-7.315548e+01	-1.853703e+00	0	0
1677969	2.241000e+00	-8.975108e+01	4.622110e+00	0	0
1679922	2.241000e+00	-9.586309e+01	4.607524e+01	0	0
1681875	2.241000e+00	-9.647046e+01	5.174879e+01	0	0
1683828	2.241000e+00	-9.680135e+01	-4.744232e-01	0	0
1685781	2.241000e+00	-9.090265e+01	2.673278e+00	0	0
1687734	2.241000e+00	-1.042524e+02	-3.061279e+01	0	0
1689688	2.241181e+00	-1.282404e+02	-5.606480e+01	0	0
1691641	2.242000e+00	-1.300924e+02	-4.488629e+01	0	0
1693594	2.242000e+00	-1.136054e+02	1.190836e+01	0	0
1695547	2.242000e+00	-1.439836e+02	4.901280e+00	0	0
1697500	2.242000e+00	-1.714768e+02	1.454901e+00	0	0
1699453	2.242000e+00	-1.776474e+02	1.439766e+01	0	0
1701406	2.242000e+00	-1.757273e+02	6.230176e+01	0	0
1703359	2.242000e+00	-1.755644e+02	-8.035738e+00	0	0
1705313	2.242000e+00	-1.708930e+02	2.137218e+00	0	0
1707266	2.242000e+00	-1.661366e+02	-1.634064e+01	0	0
1709219	2.242000e+00	-1.694170e+02	-6.781280e+01	0	0
1711172	2.242000e+00	-1.689043e+02	-2.052568e+01	0	0
1713125	2.242000e+00	-1.725914e+02	-1.709185e+01	0	0
1715078	2.242182e+00	-1.924119e+02	-1.656618e+01	0	0
1717031	2.243000e+00	-1.882437e+02	-1.714419e+01	0	0
1718984	2.243000e+00	-1.822325e+02	-1.942663e+00	0	0
1720938	2.243000e+00	-1.717283e+02	4.245483e+01	0	0
1722891	2.243000e+00	-1.655791e+02	2.634087e+00	0	0
1724844	2.243000e+00	-1.585344e+02	-1.861472e+00	0	0
1726797	2.243000e+00	-1.622026e+02	-4.135529e+00	0	0
1728750	2.243000e+00	-1.686921e+02	-4.319974e+01	0	0
1730703	2.243000e+00	-1.767955e+02	-3.306396e+01	0	0
1732656	2.243000e+00	-1.913076e+02	-2.018369e+01	0	0
1734609	2.243000e+00	-1.935172e+02	8.869049e+00	0	0
1736563	2.243000e+00	-1.960434e+02	1.701062e+00	0	0
1738516	2.243000e+00	-1.914933e+02	1.014870e+01	0	0
1740469	2.243183e+00	-2.042420e+02	4.710060e+01	0	0
1742422	2.244000e+00	-1.998424e+02	1.215877e+01	0	0
1744375	2.244000e+00	-1.917019e+02	6.107068e+00	0	0
1746328	2.244000e+00	-2.061378e+02	-5.887646e-01	0	0
1748281	2.244000e+00	-1.821660e+02	-4.598977e+01	0	0
1750234	2.244000e+00	-1.921506e+02	-3.972044e+01	0	0
1752188	2.244000e+00	-1.788926e+02	-2.519905e+01	0	0
1754141	2.244000e+00	-1.880831e+02	1.227989e+01	0	0
1756094	2.244000e+00	-1.974525e+02	5.882567e+00	0	0
1758047	2.244000e+00	-1.885812e+02	1.225616e+01	0	0
1760000	2.244000e+00	-1.965868e+02	5.572810e+01	0	0
1761953	2.244183e+00	-1.882517e+02	5.647488e+01	0	0
1763906	2.244816e+00	-1.857566e+02	2.451344e+00	0	0
1765859	2.244184e+00	-1.770754e+02	4.992088e+00	0	0
1767813	2.245000e+00	-1.699565e+02	-3.572246e+01	0	0
1769766	2.245000e+00	-1.733224e+02	-6.114968e+01	0	0
1771719	2.245000e+00	-1.714958e+02	-3.693179e+01	0	0
1773672	2.245000e+00	-1.780134e+02	1.133341e+01	0	0
1775625	2.245000e+00	-1.964226e+02	6.043286e+00	0	0
1777578	2.245000e+00	-1.895097e+02	3.084855e+00	0	0
1779531	2.245184e+00	-1.902450e+02	1.895001e+01	0	0
1781484	2.245816e+00	-1.728654e+02	6.703410e+01	0	0
1783438	2.245000e+00	-1.608086e+02	-6.552832e+00	0	0
1785391	2.245185e+00	-1.417560e+02	7.510633e+00	0	0
1787344	2.246000e+00	-1.510055e+02	-2.700338e+01	0	0
1789297	2.246000e+00	-1.626244e+02	-8.189951e+01	0	0
1791250	2.246000e+00	-1.633767e+02	-3.091454e+01	0	0
1793203	2.246000e+00	-1.700146e+02	-1.271546e+01	0	0
1795156	2.246000e+00	-1.811061e+02	1.446990e+01	0	0
1797109	2.246000e+00	-1.923962e+02	3.570587e+01	0	0
1799063	2.246000e+00	-1.761179e+02	6.564014e+01	0	0
1801016	2.246185e+00	-1.662166e+02	9.749645e+01	0	0
1802969	2.247000e+00	-1.605143e+02	8.910930e+01	0	0
1804922	2.247000e+00	-1.496469e+02	5.054939e+00	0	0
1806875	2.247000e+00	-1.451688e+02	-1.044624e+02	0	0
1808828	2.247000e+00	-1.201012e+02	-2.138148e+02	0	0
1810781	2.247000e+00	-1.426430e+02	-2.452400e+02	0	0
1812734	2.247000e+00	-1.479829e+02	-1.772321e+02	0	0
1814688	2.247000e+00	-1.515470e+02	-6.114518e+01	0	0
1816641	2.247000e+00	-1.728362e+02	4.764660e+01	0	0
1818594	2.247000e+00	-1.657782e+02	1.253009e+02	0	0
1820547	2.247000e+00	-1.580966e+02	1.148360e+02	0	0
1822500	2.247186e+00	-1.572072e+02	7.218501e+01	0	0
1824453	2.248000e+00	-1.422486e+02	4.336072e+01	0	0
1826406	2.248000e+00	-1.357557e+02	4.565970e+00	0	0
1828359	2.248000e+00	-1.392557e+02	-3.364448e+01	0	0
1830313	2.248000e+00	-1.656551e+02	-4.561603e+01	0	0
1832266	2.248000e+00	-1.604660e+02	-2.787271e+01	0	0
1834219	2.248000e+00	-1.633747e+02	-1.293638e+01	0	0
1836172	2.248000e+00	-1.639949e+02	-1.413268e+01	0	0
1838125	2.248187e+00	-1.776182e+02	-2.710606e+00	0	0
1840078	2.249000e+00	-1.722329e+02	4.942700e+01	0	0
1842031	2.249000e+00	-1.567351e+02	3.451780e+01	0	0
1843984	2.249000e+00	-1.558532e+02	-5.996620e+00	0	0
1845938	2.249000e+00	-1.241449e+02	3.096414e+00	0	0
1847891	2.249000e+00	-1.362210e+02	-2.645561e+01	0	0
1849844	2.249000e+00	-1.364629e+02	-5.523975e+01	0	0
1851797	2.249000e+00	-1.454307e+02	-3.570396e+01	0	0
1853750	2.249000e+00	-1.509603e+02	2.666913e+01	0	0
1855703	2.249188e+00	-1.574111e+02	2.193339e+01	0	0
1857656	2.250000e+00	-1.637739e+02	1.555364e+01	0	0
1859609	2.250000e+00	-1.618690e+02	2.673941e+01	0	0
1861563	2.250000e+00	-1.519825e+02	7.220741e+01	0	0
1863516	2.250000e+00	-1.651443e+02	-8.966030e+00	0	0
1865469	2.250000e+00	-1.545390e+02	-1.970013e+00	0	0
1867422	2.250000e+00	-1.539038e+02	-1.996866e+01	0	0
1869375	2.250000e+00	-1.520745e+02	-7.656512e+01	0	0
1871328	2.250000e+00	-1.721736e+02	-2.172805e+01	0	0
1873281	2.250188e+00	-1.736466e+02	-1.872850e+01	0	0
1875234	2.251000e+00	-1.823464e+02	-1.709540e+01	0	0
1877188	2.251000e+00	-1.886764e+02	-1.800233e+01	0	0
1879141	2.251000e+00	-1.927975e+02	1.538799e-02	0	0
1881094	2.251000e+00	-1.785906e+02	4.704695e+01	0	0
1883047	2.251000e+00	-1.545091e+02	-7.340480e+00	0	0
1885000	2.251000e+00	-1.619674e+02	-3.053696e+00	0	0
1886953	2.251189e+00	-1.609529e+02	-9.514000e+00	0	0
1888906	2.252000e+00	-1.611975e+02	-5.209328e+01	0	0
1890859	2.252000e+00	-1.606482e+02	-3.283883e+01	0	0
1892813	2.252000e+00	-1.738014e+02	-1.678609e+01	0	0
1894766	2.252000e+00	-1.709194e+02	7.294788e+00	0	0
1896719	2.252000e+00	-1.739934e+02	2.200874e+00	0	0
1898672	2.252000e+00	-1.729286e+02	1.363113e+01	0	0
1900625	2.252000e+00	-1.596526e+02	5.173892e+01	0	0
1902578	2.252190e+00	-1.506175e+02	1.108472e+01	0	0
1904531	2.253000e+00	-1.348141e+02	3.148121e+00	0	0
1906484	2.253000e+00	-1.436019e+02	-4.901179e+00	0	0
1908438	2.253000e+00	-1.527066e+02	-4.067892e+01	0	0
1910391	2.253000e+00	-1.511762e+02	-4.718255e+01	0	0
1912344	2.253000e+00	-1.486552e+02	-2.495105e+01	0	0
1914297	2.253000e+00	-1.590265e+02	7.446074e-01	0	0
1916250	2.253190e+00	-1.632240e+02	-4.528433e+00	0	0
1918203	2.254000e+00	-1.567162e+02	3.112900e+00	0	0
1920156	2.254000e+00	-1.471690e+02	4.862698e+01	0	0
1922109	2.254000e+00	-1.454448e+02	3.185707e+01	0	0
1924063	2.254000e+00	-1.230440e+02	-5.925919e+00	0	0
1926016	2.254000e+00	-6.942656e+01	-1.582097e+00	0	0
1927969	2.254000e+00	-4.276666e+01	-3.278736e+01	0	0
1929922	2.254191e+00	-2.788229e+01	-6.045044e+01	0	0
1931875	2.255000e+00	-2.567978e+01	-4.550171e+01	0	0
1933828	2.255000e+00	-1.978741e+01	1.068718e+01	0	0
1935781	2.255000e+00	-3.901352e+01	6.431896e+00	0	0
1937734	2.255000e+00	-5.485435e+01	4.457777e+00	0	0
1939688	2.255000e+00	-4.333401e+01	2.409585e+01	0	0
1941641	2.255000e+00	-3.049720e+01	6.465769e+01	0	0
1943594	2.255000e+00	-1.889907e+01	-8.582494e+00	0	0
1945547	2.255000e+00	2.154211e+00	4.538970e+00	0	0
1947500	2.255192e+00	1.866972e+01	-1.383240e+01	0	0
1949453	2.256000e+00	2.755911e+01	-7.898812e+01	0	0
1951406	2.256000e+00	4.999435e+00	-3.481522e+01	0	0
1953359	2.256000e+00	1.474432e+01	-6.804337e-01	0	0
1955313	2.256000e+00	1.687849e+01	-5.224413e-01	0	0
1957266	2.256192e+00	1.962048e+01	-3.198878e+00	0	0
1959219	2.257000e+00	3.111221e+01	1.290067e+01	0	0
1961172	2.257000e+00	5.887489e+01	6.063563e+01	0	0
1963125	2.257000e+00	9.492818e+01	-7.002371e+00	0	0
1965078	2.257000e+00	8.955710e+01	5.190834e+00	0	0
1967031	2.257000e+00	6.457954e+01	-1.050483e+01	0	0
1968984	2.257000e+00	6.567196e+01	-5.713817e+01	0	0
1970938	2.257193e+00	6.053924e+01	-2.041376e+01	0	0
1972891	2.258000e+00	5.212581e+01	-1.984909e+01	0	0
1974844	2.258000e+00	4.984707e+01	1.946767e+00	0	0
1976797	2.258000e+00	3.611874e+01	-3.853600e+00	0	0
1978750	2.258000e+00	3.987431e+01	8.324808e+00	0	0
1980703	2.258000e+00	4.305128e+01	5.104636e+01	0	0
1982656	2.258000e+00	3.419386e+01	1.228766e+01	0	0
1984609	2.258193e+00	2.373000e+01	2.707456e-01	0	0
1986563	2.259000e+00	1.788341e+01	-2.656912e+00	0	0
1988516	2.259000e+00	-1.001618e+01	-3.409454e+01	0	0
1990469	2.259000e+00	-4.730555e+01	-4.864741e+01	0	0
1992422	2.259000e+00	-6.773659e+01	-2.146691e+01	0	0
1994375	2.259000e+00	-8.518831e+01	3.504347e+00	0	0
1996328	2.259194e+00	-1.091323e+02	-1.261921e+00	0	0
1998281	2.260000e+00	-1.205473e+02	9.306995e+00	0	0
2000234	2.260000e+00	-1.317787e+02	5.928403e+01	0	0
2002188	2.260000e+00	-1.456897e+02	4.031194e+01	0	0
2004141	2.260000e+00	-1.514442e+02	-1.628907e-01	0	0
2006094	2.260000e+00	-1.547135e+02	-3.785588e+00	0	0
2008047	2.260194e+00	-1.510472e+02	-4.593246e+01	0	0
2010000	2.261000e+00	-1.690431e+02	-5.219647e+01	0	0
2011953	2.261000e+00	-1.901367e+02	-4.632144e+01	0	0
2013906	2.261000e+00	-1.913910e+02	1.142346e+01	0	0
2015859	2.261000e+00	-2.019755e+02	5.517527e+00	0	0
2017813	2.261195e+00	-2.148696e+02	3.416770e+00	0	0
2019766	2.262000e+00	-2.230634e+02	2.521520e+01	0	0
2021719	2.262000e+00	-2.161277e+02	6.467813e+01	0	0
2023672	2.262000e+00	-2.129732e+02	-5.643082e+00	0	0
2025625	2.262000e+00	-2.003320e+02	6.930378e+00	0	0
2027578	2.262000e+00	-2.018230e+02	-1.254790e+01	0	0
2029531	2.262195e+00	-2.061575e+02	-7.371679e+01	0	0
2031484	2.263000e+00	-2.165321e+02	-3.025074e+01	0	0
2033438	2.263000e+00	-2.335749e+02	4.765815e+00	0	0
2035391	2.263000e+00	-2.416373e+02	2.321890e+00	0	0
2037344	2.263000e+00	-2.436896e+02	-2.059347e+00	0	0
2039297	2.263000e+00	-2.440277e+02	1.340109e+01	0	0
2041250	2.263196e+00	-2.382901e+02	6.030630e+01	0	0
2043203	2.264000e+00	-2.171637e+02	-8.038701e+00	0	0
2045156	2.264000e+00	-2.105058e+02	4.610877e+00	0	0
2047109	2.264000e+00	-2.180982e+02	-1.342704e+01	0	0
2049063	2.264000e+00	-2.208068e+02	-5.789521e+01	0	0
2051016	2.264196e+00	-2.246419e+02	-4.404907e+00	0	0
2052969	2.265000e+00	-2.302924e+02	-3.581865e+00	0	0
2054922	2.265000e+00	-2.417575e+02	-2.459907e+00	0	0
2056875	2.265000e+00	-2.447456e+02	-5.856573e+00	0	0
2058828	2.265000e+00	-2.363408e+02	3.916620e+00	0	0
2060781	2.265000e+00	-2.496404e+02	4.994735e+01	0	0
2062734	2.265197e+00	-2.356997e+02	2.643188e+01	0	0
2064688	2.266000e+00	-2.108231e+02	-6.663581e+00	0	0
2066641	2.266000e+00	-2.362460e+02	-3.358190e+00	0	0
2068594	2.266000e+00	-2.303759e+02	-2.664637e+01	0	0
2070547	2.266000e+00	-2.218328e+02	-4.778471e+01	0	0
2072500	2.266197e+00	-2.410696e+02	-6.139387e+00	0	0
2074453	2.267000e+00	-2.348628e+02	8.727118e-01	0	0
2076406	2.267000e+00	-2.250802e+02	-9.056949e-01	0	0
2078359	2.267000e+00	-2.553240e+02	1.057175e+01	0	0
2080313	2.267000e+00	-2.515503e+02	5.992115e+01	0	0
2082266	2.267198e+00	-2.750200e+02	3.245785e+01	0	0
2084219	2.268000e+00	-2.842111e+02	2.708436e-01	0	0
2086172	2.268000e+00	-2.878435e+02	-3.718014e+00	0	0
2088125	2.268000e+00	-2.759265e+02	-4.717880e+01	0	0
2090078	2.268000e+00	-2.352665e+02	-6.008877e+01	0	0
2092031	2.268198e+00	-1.638631e+02	-3.566868e+01	0	0
2093984	2.269000e+00	-7.765238e+01	1.089006e+01	0	0
2095938	2.269000e+00	2.290578e+01	6.858749e+00	0	0
2097891	2.269000e+00	1.492007e+02	5.490561e+00	0	0
2099844	2.269000e+00	3.219450e+02	2.962541e+01	0	0
2101797	2.269000e+00	6.065495e+02	7.193018e+01	0	0
2103750	2.269199e+00	8.910385e+02	-4.576537e+00	0	0
2105703	2.270000e+00	1.127946e+03	7.538794e+00	0	0
2107656	2.270000e+00	1.378351e+03	-1.154463e+01	0	0
2109609	2.270000e+00	1.628292e+03	-7.711293e+01	0	0
2111563	2.270199e+00	1.818855e+03	-4.049633e+01	0	0
2113516	2.271000e+00	1.829794e+03	4.739059e+00	0	0
2115469	2.271000e+00	1.685087e+03	1.159078e+00	0	0
2117422	2.271000e+00	1.460364e+03	-2.113804e+00	0	0
2119375	2.271000e+00	1.114852e+03	1.300157e+01	0	0
2121328	2.271199e+00	8.959696e+02	5.881996e+01	0	0
2123281	2.272000e+00	6.665527e+02	-9.965780e+00	0	0
2125234	2.272000e+00	5.000945e+02	2.388055e+00	0	0
2127188	2.272000e+00	2.212233e+02	-1.449451e+01	0	0
2129141	2.272200e+00	-1.527737e+02	-5.905332e+01	0	0
2131094	2.273000e+00	-3.093358e+02	-8.731515e+00	0	0
2133047	2.273000e+00	-3.811895e+02	-4.411132e+00	0	0
2135000	2.273000e+00	-4.151987e+02	-1.209871e+00	0	0
2136953	2.273000e+00	-3.922905e+02	-3.761792e+00	0	0
2138906	2.273200e+00	-3.651426e+02	8.137130e+00	0	0
2140859	2.274000e+00	-3.172713e+02	5.664548e+01	0	0
2142813	2.274000e+00	-2.550196e+02	3.019366e+01	0	0
2144766	2.274000e+00	-2.067242e+02	-9.604192e-01	0	0
2146719	2.274000e+00	-1.706119e+02	-1.834303e+00	0	0
2148672	2.274201e+00	-1.564576e+02	-3.539576e+01	0	0
2150625	2.275000e+00	-1.425722e+02	-4.726628e+01	0	0
2152578	2.275000e+00	-1.469635e+02	-1.144417e+01	0	0
2154531	2.275000e+00	-1.551904e+02	2.353410e+00	0	0
2156484	2.275201e+00	-1.575838e+02	-1.344021e+00	0	0
2158438	2.276000e+00	-1.469824e+02	9.771539e+00	0	0
2160391	2.276000e+00	-1.730958e+02	5.837851e+01	0	0
2162344	2.276000e+00	-1.728016e+02	3.366313e+01	0	0
2164297	2.276000e+00	-1.734634e+02	1.575640e-01	0	0
2166250	2.276201e+00	-1.752205e+02	-6.129282e+00	0	0
2168203	2.277000e+00	-1.654519e+02	-5.422437e+01	0	0
2170156	2.277000e+00	-1.780021e+02	-5.562081e+01	0	0
2172109	2.277000e+00	-1.729955e+02	-4.063591e+01	0	0
2174063	2.277202e+00	-1.773414e+02	6.682492e+00	0	0
2176016	2.278000e+00	-1.760830e+02	1.007886e+00	0	0
2177969	2.278000e+00	-1.653427e+02	4.812654e+00	0	0
2179922	2.278000e+00	-1.649079e+02	3.892647e+01	0	0
2181875	2.278202e+00	-1.536702e+02	5.558556e+01	0	0
2183828	2.279000e+00	-1.499415e+02	-6.927961e+00	0	0
2185781	2.279000e+00	-1.348265e+02	4.321844e+00	0	0
2187734	2.279000e+00	-1.223414e+02	-1.191132e+01	0	0
2189688	2.279000e+00	-1.268579e+02	-7.017477e+01	0	0
2191641	2.279203e+00	-1.360245e+02	-3.663597e+01	0	0
2193594	2.280000e+00	-1.352579e+02	1.932002e+00	0	0
2195547	2.280000e+00	-1.438900e+02	-1.267702e+00	0	0
2197500	2.280000e+00	-1.495597e+02	-4.838831e+00	0	0
2199453	2.280203e+00	-1.474512e+02	1.161472e+01	0	0
2201406	2.281000e+00	-1.474121e+02	5.768214e+01	0	0
2203359	2.281000e+00	-1.314794e+02	-1.006620e+01	0	0
2205313	2.281000e+00	-1.112985e+02	2.994006e+00	0	0
2207266	2.281203e+00	-1.212856e+02	-1.498290e+01	0	0
2209219	2.282000e+00	-1.274437e+02	-6.377545e+01	0	0
2211172	2.282000e+00	-1.251948e+02	-1.235015e+01	0	0
2213125	2.282000e+00	-1.241510e+02	-4.509943e+00	0	0
2215078	2.282203e+00	-1.317188e+02	-2.456372e+00	0	0
2217031	2.283000e+00	-1.357141e+02	-4.968457e+00	0	0
2218984	2.283000e+00	-1.353481e+02	7.975696e+00	0	0
2220938	2.283000e+00	-1.329594e+02	5.243424e+01	0	0
2222891	2.283204e+00	-1.171819e+02	1.002841e+01	0	0
2224844	2.284000e+00	-9.677189e+01	-2.101334e+00	0	0
2226797	2.284000e+00	-1.063853e+02	-7.863132e+00	0	0
2228750	2.284000e+00	-1.101501e+02	-4.741734e+01	0	0
2230703	2.284000e+00	-1.134610e+02	-4.772927e+01	0	0
2232656	2.284204e+00	-1.103374e+02	-7.045391e+00	0	0
2234609	2.285000e+00	-1.027037e+02	-9.321993e-02	0	0
2236563	2.285000e+00	-1.037261e+02	-2.241733e+00	0	0
2238516	2.285205e+00	-1.045739e+02	9.261312e+00	0	0
2240469	2.286000e+00	-9.262792e+01	5.829108e+01	0	0
2242422	2.286000e+00	-7.608481e+01	3.407336e+01	0	0
2244375	2.286000e+00	-7.272865e+01	-1.059195e+00	0	0
2246328	2.286000e+00	-7.146869e+01	-9.657802e+00	0	0
2248281	2.286205e+00	-6.107918e+01	-6.120965e+01	0	0
2250234	2.287000e+00	-7.136899e+01	-4.863928e+01	0	0
2252188	2.287000e+00	-7.498531e+01	-3.702185e+01	0	0
2254141	2.287205e+00	-7.796099e+01	4.346490e-01	0	0
2256094	2.288000e+00	-7.718187e+01	-5.509270e+00	0	0
2258047	2.288000e+00	-6.279102e+01	1.903091e+00	0	0
2260000	2.288000e+00	-6.080876e+01	4.763463e+01	0	0
2261953	2.288205e+00	-3.634338e+01	5.364312e+01	0	0
2263906	2.289000e+00	-4.294327e+01	-1.098414e+01	0	0
2265859	2.289000e+00	-3.099313e+01	6.598213e-01	0	0
2267813	2.289000e+00	-2.193417e+01	-1.796088e+01	0	0
2269766	2.289206e+00	-2.564342e+01	-7.766856e+01	0	0
2271719	2.290000e+00	-2.980362e+01	-3.276846e+01	0	0
2273672	2.290000e+00	-2.378124e+01	9.220949e-01	0	0
2275625	2.290206e+00	-3.283281e+01	1.018424e+00	0	0
2277578	2.291000e+00	-3.432563e+01	-1.571683e+00	0	0
2279531	2.291000e+00	-3.163763e+01	1.689665e+01	0	0
2281484	2.291000e+00	-2.028969e+01	6.741011e+01	0	0
2283438	2.291000e+00	4.473779e+00	-8.729645e+00	0	0
2285391	2.291207e+00	3.171844e+01	4.024832e+00	0	0
2287344	2.292000e+00	4.071814e+01	-1.970446e+01	0	0
2289297	2.292000e+00	4.216396e+01	-7.539055e+01	0	0
2291250	2.292207e+00	2.428332e+01	-1.616095e+01	0	0
2293203	2.293000e+00	2.159526e+01	-5.732275e+00	0	0
2295156	2.293000e+00	3.216597e+01	-5.039985e+00	0	0
2297109	2.293000e+00	3.582599e+01	-9.961780e+00	0	0
2299063	2.293207e+00	5.673838e+01	5.477708e+00	0	0
2301016	2.294000e+00	6.509757e+01	5.446676e+01	0	0
2302969	2.294000e+00	8.131777e+01	-4.366794e-01	0	0
2304922	2.294000e+00	1.105410e+02	-3.932557e+00	0	0
2306875	2.294208e+00	1.131032e+02	-7.272101e+00	0	0
2308828	2.295000e+00	1.083901e+02	-3.124797e+01	0	0
2310781	2.295000e+00	1.233741e+02	-4.148090e+01	0	0
2312734	2.295208e+00	1.269966e+02	-9.245587e+00	0	0
2314688	2.296000e+00	1.340907e+02	2.289252e+01	0	0
2316641	2.296000e+00	1.375986e+02	4.860811e+01	0	0
2318594	2.296000e+00	1.336960e+02	7.400950e+01	0	0
2320547	2.296208e+00	1.511815e+02	1.067515e+02	0	0
2322500	2.297000e+00	1.747901e+02	9.168167e+01	0	0
2324453	2.297000e+00	1.988873e+02	1.098277e+01	0	0
2326406	2.297208e+00	2.188391e+02	-1.098787e+02	0	0
2328359	2.298000e+00	2.206153e+02	-2.206816e+02	0	0
2330313	2.298000e+00	2.280104e+02	-2.561711e+02	0	0
2332266	2.298209e+00	2.368419e+02	-2.045057e+02	0	0
2334219	2.299000e+00	2.461575e+02	-1.153105e+02	0	0
2336172	2.299000e+00	2.504142e+02	-1.506310e+01	0	0
2338125	2.299000e+00	2.487056e+02	8.229703e+01	0	0
2340078	2.299209e+00	2.534562e+02	1.152772e+02	0	0
2342031	2.300000e+00	2.857355e+02	9.269795e+01	0	0
2343984	2.300000e+00	3.067910e+02	4.629986e+01	0	0
2345938	2.300000e+00	3.288493e+02	1.806539e+01	0	0
2347891	2.300210e+00	3.339172e+02	-1.740997e+01	0	0
2349844	2.301000e+00	3.497119e+02	-5.800936e+01	0	0
2351797	2.301000e+00	3.666212e+02	-1.537045e+01	0	0
2353750	2.301210e+00	3.536939e+02	8.796451e+00	0	0
2355703	2.302000e+00	3.532317e+02	-4.211436e+00	0	0
2357656	2.302000e+00	3.665068e+02	-5.183924e+00	0	0
2359609	2.302000e+00	3.734887e+02	1.311409e+01	0	0
2361563	2.302210e+00	3.903660e+02	6.058572e+01	0	0
2363516	2.303000e+00	3.964202e+02	-1.746232e+01	0	0
2365469	2.303000e+00	4.095216e+02	-7.442786e+00	0	0
2367422	2.303000e+00	4.159078e+02	-2.752645e+01	0	0
2369375	2.303210e+00	4.139859e+02	-8.193843e+01	0	0
2371328	2.304000e+00	4.175041e+02	-3.166441e+01	0	0
2373281	2.304210e+00	4.022296e+02	-1.466007e+01	0	0
2375234	2.305000e+00	3.827304e+02	-1.136874e+01	0	0
2377188	2.305000e+00	3.761474e+02	-1.007960e+01	0	0
2379141	2.305000e+00	3.754286e+02	8.652178e+00	0	0
2381094	2.305211e+00	3.647737e+02	4.831520e+01	0	0
2383047	2.306000e+00	3.578730e+02	-7.664016e+00	0	0
2385000	2.306000e+00	3.456982e+02	4.948278e+00	0	0
2386953	2.306000e+00	3.176147e+02	-7.467084e+00	0	0
2388906	2.306211e+00	2.853231e+02	-4.964177e+01	0	0
2390859	2.307000e+00	2.487672e+02	-3.244466e+01	0	0
2392813	2.307212e+00	2.060001e+02	-2.273778e+01	0	0
2394766	2.308000e+00	1.790689e+02	3.316590e+00	0	0
2396719	2.308000e+00	1.521873e+02	-7.378459e-01	0	0
2398672	2.308000e+00	1.095596e+02	8.872111e+00	0	0
2400625	2.308212e+00	7.902921e+01	5.056567e+01	0	0
2402578	2.309000e+00	6.074690e+01	3.517228e+01	0	0
2404531	2.309000e+00	4.700825e+01	-3.216137e+00	0	0
2406484	2.309212e+00	3.999280e+01	-8.733342e+00	0	0
2408438	2.310000e+00	1.555770e+01	-5.101756e+01	0	0
2410391	2.310000e+00	-1.384126e+01	-4.513678e+01	0	0
2412344	2.310000e+00	-2.750488e+01	-3.467966e+01	0	0
2414297	2.310212e+00	-4.978280e+01	2.986498e+00	0	0
2416250	2.311000e+00	-8.702886e+01	-4.618255e+00	0	0
2418203	2.311212e+00	-1.002713e+02	7.811399e+00	0	0
2420156	2.312000e+00	-1.075073e+02	6.054037e+01	0	0
2422109	2.312000e+00	-1.121089e+02	4.195640e+01	0	0
2424063	2.312000e+00	-1.116725e+02	-6.702152e+00	0	0
2426016	2.312213e+00	-1.072322e+02	-2.053117e+00	0	0
2427969	2.313000e+00	-1.106633e+02	-3.012035e+01	0	0
2429922	2.313000e+00	-1.191839e+02	-6.984623e+01	0	0
2431875	2.313213e+00	-1.284944e+02	-3.694743e+01	0	0
2433828	2.314000e+00	-1.398570e+02	3.203875e-01	0	0
2435781	2.314000e+00	-1.440934e+02	-2.312815e+00	0	0
2437734	2.314213e+00	-1.530732e+02	-4.592288e+00	0	0
2439688	2.315000e+00	-1.733834e+02	1.742750e+01	0	0
2441641	2.315000e+00	-1.641068e+02	6.371946e+01	0	0
2443594	2.315000e+00	-1.763264e+02	-1.043748e+01	0	0
2445547	2.315214e+00	-1.558523e+02	3.663288e+00	0	0
2447500	2.316000e+00	-1.518308e+02	-1.594684e+01	0	0
2449453	2.316214e+00	-1.797590e+02	-7.247174e+01	0	0
2451406	2.317000e+00	-1.726604e+02	-2.893044e+01	0	0
2453359	2.317000e+00	-1.686167e+02	-5.181572e+00	0	0
2455313	2.317214e+00	-1.781733e+02	-6.111232e+00	0	0
2457266	2.318000e+00	-1.900269e+02	-7.417759e+00	0	0
2459219	2.318000e+00	-1.923576e+02	9.189374e+00	0	0
2461172	2.318000e+00	-1.801842e+02	4.702973e+01	0	0
2463125	2.318214e+00	-1.603235e+02	-9.960110e+00	0	0
2465078	2.319000e+00	-1.426709e+02	3.024473e+00	0	0
2467031	2.319000e+00	-1.415173e+02	-9.600630e+00	0	0
2468984	2.319214e+00	-1.428452e+02	-5.142370e+01	0	0
2470938	2.320000e+00	-1.520403e+02	-3.476405e+01	0	0
2472891	2.320215e+00	-1.911954e+02	-2.844092e+01	0	0
2474844	2.321000e+00	-2.002671e+02	-2.618210e+00	0	0
2476797	2.321000e+00	-1.991644e+02	-8.770354e+00	0	0
2478750	2.321000e+00	-1.899223e+02	2.785888e+00	0	0
2480703	2.321215e+00	-1.851079e+02	4.489708e+01	0	0
2482656	2.322000e+00	-1.678872e+02	2.090559e+01	0	0
2484609	2.322000e+00	-1.823278e+02	-6.173665e+00	0	0
2486563	2.322216e+00	-1.668525e+02	-1.062369e+01	0	0
2488516	2.323000e+00	-1.769196e+02	-4.968598e+01	0	0
2490469	2.323000e+00	-1.875162e+02	-4.828477e+01	0	0
2492422	2.323216e+00	-1.875292e+02	-2.619629e+01	0	0
2494375	2.324000e+00	-1.938316e+02	1.438229e+00	0	0
2496328	2.324000e+00	-1.941910e+02	-3.797854e+00	0	0
2498281	2.324216e+00	-2.031131e+02	7.688477e+00	0	0
2500234	2.325000e+00	-1.941303e+02	5.530848e+01	0	0
2502188	2.325000e+00	-1.875895e+02	3.578332e+01	0	0
2504141	2.325216e+00	-1.659896e+02	-6.333830e+00	0	0
2506094	2.326000e+00	-1.748111e+02	-1.926203e+00	0	0
2508047	2.326000e+00	-1.614757e+02	-3.301265e+01	0	0
2510000	2.326216e+00	-1.594446e+02	-6.520622e+01	0	0
2511953	2.327000e+00	-1.812064e+02	-3.514464e+01	0	0
2513906	2.327000e+00	-1.995363e+02	1.226774e+01	0	0
2515859	2.327217e+00	-2.080606e+02	7.857867e+00	0	0
2517813	2.328000e+00	-1.952569e+02	5.183140e+00	0	0
2519766	2.328000e+00	-1.929670e+02	2.755075e+01	0	0
2521719	2.328217e+00	-1.938137e+02	6.680934e+01	0	0
2523672	2.329000e+00	-1.732519e+02	-4.559463e+00	0	0
2525625	2.329000e+00	-1.679008e+02	1.430680e+01	0	0
2527578	2.329217e+00	-1.602357e+02	-1.556829e+01	0	0
2529531	2.330000e+00	-1.702308e+02	-7.135740e+01	0	0
2531484	2.330000e+00	-1.678565e+02	-3.178390e+01	0	0
2533438	2.330218e+00	-1.647370e+02	5.655659e+00	0	0
2535391	2.331000e+00	-1.793685e+02	2.686927e+01	0	0
2537344	2.331000e+00	-1.746314e+02	4.932409e+01	0	0
2539297	2.331218e+00	-1.821515e+02	8.488943e+01	0	0
2541250	2.332000e+00	-1.752133e+02	1.138528e+02	0	0
2543203	2.332000e+00	-1.815946e+02	8.539587e+01	0	0
2545156	2.332218e+00	-1.568943e+02	-1.490406e+01	0	0
2547109	2.333000e+00	-1.439749e+02	-1.240816e+02	0	0
2549063	2.333000e+00	-1.592412e+02	-2.260810e+02	0	0
2551016	2.333218e+00	-1.628435e+02	-2.454032e+02	0	0
2552969	2.334000e+00	-1.854607e+02	-1.714742e+02	0	0
2554922	2.334219e+00	-1.845336e+02	-5.672486e+01	0	0
2556875	2.335000e+00	-1.754411e+02	4.928414e+01	0	0
2558828	2.335000e+00	-1.831694e+02	1.228420e+02	0	0
2560781	2.335219e+00	-1.776714e+02	1.121958e+02	0	0
2562734	2.336000e+00	-1.662028e+02	7.209732e+01	0	0
2564688	2.336000e+00	-1.533074e+02	4.218937e+01	0	0
2566641	2.336219e+00	-1.326434e+02	2.282193e+00	0	0
2568594	2.337000e+00	-1.424617e+02	-3.570179e+01	0	0
2570547	2.337000e+00	-1.513476e+02	-3.986681e+01	0	0
2572500	2.337219e+00	-1.581501e+02	-1.493214e+01	0	0
2574453	2.338000e+00	-1.614099e+02	-1.414902e+01	0	0
2576406	2.338219e+00	-1.710933e+02	-1.364683e+01	0	0
2578359	2.339000e+00	-1.882098e+02	5.259997e-01	0	0
2580313	2.339000e+00	-1.693153e+02	5.490190e+01	0	0
2582266	2.339220e+00	-1.693291e+02	3.952350e+01	0	0
2584219	2.340000e+00	-1.817122e+02	5.389794e+00	0	0
2586172	2.340000e+00	-1.511154e+02	-3.340395e-02	0	0
2588125	2.340220e+00	-1.507063e+02	-4.878394e+01	0	0
2590078	2.341000e+00	-1.765033e+02	-6.476996e+01	0	0
2592031	2.341000e+00	-1.720375e+02	-4.684416e+01	0	0
2593984	2.341220e+00	-1.709504e+02	2.109707e+01	0	0
2595938	2.342000e+00	-1.755680e+02	1.294926e+01	0	0
2597891	2.342000e+00	-1.719610e+02	6.775612e+00	0	0
2599844	2.342221e+00	-1.742245e+02	2.185213e+01	0	0
2601797	2.343000e+00	-1.690395e+02	6.050211e+01	0	0
2603750	2.343000e+00	-1.615773e+02	-2.433800e+01	0	0
2605703	2.343221e+00	-1.428176e+02	-7.342567e+00	0	0
2607656	2.344000e+00	-1.463873e+02	-3.160524e+01	0	0
2609609	2.344000e+00	-1.549991e+02	-9.078427e+01	0	0
2611563	2.344221e+00	-1.546271e+02	-2.745415e+01	0	0
2613516	2.345000e+00	-1.648859e+02	-2.140697e+01	0	0
2615469	2.345000e+00	-1.713519e+02	-1.647895e+01	0	0
2617422	2.345221e+00	-1.696389e+02	-1.646702e+01	0	0
2619375	2.346000e+00	-1.635486e+02	6.272804e+00	0	0
2621328	2.346221e+00	-1.768187e+02	5.607529e+01	0	0
2623281	2.347000e+00	-1.662564e+02	-1.344281e+00	0	0
2625234	2.347000e+00	-1.561222e+02	7.691112e-01	0	0
2627188	2.347222e+00	-1.598411e+02	-1.137119e+01	0	0
2629141	2.348000e+00	-1.832381e+02	-6.162055e+01	0	0
2631094	2.348222e+00	-1.809533e+02	-2.994874e+01	0	0
2633047	2.349000e+00	-1.744633e+02	-1.207720e+01	0	0
2635000	2.349000e+00	-1.798830e+02	2.593145e+00	0	0
2636953	2.349222e+00	-1.830446e+02	-4.791158e+00	0	0
2638906	2.350000e+00	-1.732286e+02	1.034232e+01	0	0
2640859	2.350000e+00	-1.771023e+02	5.366071e+01	0	0
2642813	2.350223e+00	-1.839235e+02	3.176287e+00	0	0
2644766	2.351000e+00	-1.759779e+02	-9.774740e-03	0	0
2646719	2.351000e+00	-1.810394e+02	-6.129911e+00	0	0
2648672	2.351223e+00	-1.845250e+02	-4.338560e+01	0	0
2650625	2.352000e+00	-1.730906e+02	-5.439736e+01	0	0
2652578	2.352223e+00	-1.715832e+02	-2.137573e+01	0	0
2654531	2.353000e+00	-1.509678e+02	3.021038e+00	0	0
2656484	2.353000e+00	-1.380081e+02	-2.115629e+00	0	0
2658438	2.353223e+00	-1.506591e+02	7.723369e+00	0	0
2660391	2.354000e+00	-1.158319e+02	5.567097e+01	0	0
2662344	2.354000e+00	-8.140497e+01	4.819745e+01	0	0
2664297	2.354223e+00	-3.240478e+01	5.326958e-01	0	0
2666250	2.355000e+00	-2.377784e+01	-3.375664e+00	0	0
2668203	2.355000e+00	-8.540830e+00	-5.406089e+01	0	0
2670156	2.355223e+00	4.645518e-02	-6.233686e+01	0	0
2672109	2.356000e+00	-6.542570e+00	-4.668202e+01	0	0
2674063	2.356224e+00	-1.128017e+01	1.116689e+01	0	0
2676016	2.357000e+00	-5.328325e-01	3.334645e+00	0	0
2677969	2.357000e+00	4.172812e+00	5.967280e+00	0	0
2679922	2.357224e+00	-9.174449e+00	4.275559e+01	0	0
2681875	2.358000e+00	-3.890110e+00	6.224743e+01	0	0
2683828	2.358000e+00	4.108966e+01	-8.922897e+00	0	0
2685781	2.358224e+00	6.760145e+01	4.080248e+00	0	0
2687734	2.359000e+00	5.489252e+01	-2.410215e+01	0	0
2689688	2.359000e+00	6.788249e+01	-8.159669e+01	0	0
2691641	2.359225e+00	6.386929e+01	-1.969079e+01	0	0
2693594	2.360000e+00	6.382589e+01	-6.909348e+00	0	0
2695547	2.360000e+00	5.513164e+01	-2.492541e+00	0	0
2697500	2.360225e+00	6.570728e+01	-5.854792e+00	0	0
2699453	2.361000e+00	8.338131e+01	1.514432e+01	0	0
2701406	2.361225e+00	1.071365e+02	6.034468e+01	0	0
2703359	2.362000e+00	1.122673e+02	-9.418156e+00	0	0
2705313	2.362225e+00	1.067200e+02	4.788125e+00	0	0
2707266	2.363000e+00	1.018420e+02	-1.299027e+01	0	0
2709219	2.363000e+00	8.732640e+01	-6.216445e+01	0	0
2711172	2.363000e+00	7.161177e+01	-2.992817e+01	0	0
2713125	2.363225e+00	5.326239e+01	-1.052645e+01	0	0
2715078	2.364000e+00	5.210869e+01	9.946764e-01	0	0
2717031	2.364225e+00	4.152602e+01	-3.206007e+00	0	0
2718984	2.365000e+00	3.313428e+01	1.077036e+01	0	0
2720938	2.365000e+00	1.691636e+01	5.160413e+01	0	0
2722891	2.365226e+00	6.465869e+00	1.440180e+01	0	0
2724844	2.366000e+00	-2.372375e+00	2.272956e+00	0	0
2726797	2.366000e+00	-3.491316e+01	-8.908145e+00	0	0
2728750	2.366226e+00	-3.628768e+01	-5.211332e+01	0	0
2730703	2.367000e+00	-7.150801e+01	-3.660101e+01	0	0
2732656	2.367226e+00	-8.209236e+01	-2.153956e+01	0	0
2734609	2.368000e+00	-1.109286e+02	1.916288e+00	0	0
2736563	2.368000e+00	-1.358872e+02	-4.013800e+00	0	0
2738516	2.368227e+00	-1.498695e+02	7.533940e+00	0	0
2740469	2.369000e+00	-1.735599e+02	5.461708e+01	0	0
2742422	2.369227e+00	-1.619884e+02	3.526570e+01	0	0
2744375	2.370000e+00	-1.585190e+02	-3.333276e+00	0	0
2746328	2.370000e+00	-1.534540e+02	-9.869666e+00	0	0
2748281	2.370000e+00	-1.746812e+02	-5.717448e+01	0	0
2750234	2.370227e+00	-1.818542e+02	-4.613440e+01	0	0
2752188	2.371000e+00	-1.921042e+02	-2.775785e+01	0	0
2754141	2.371228e+00	-2.026708e+02	2.868497e+00	0	0
2756094	2.372000e+00	-2.179797e+02	-4.193531e+00	0	0
2758047	2.372000e+00	-2.269942e+02	3.185891e+00	0	0
2760000	2.372228e+00	-2.218669e+02	4.958997e+01	0	0
2761953	2.373000e+00	-2.075636e+02	5.086454e+01	0	0
2763906	2.373000e+00	-2.152675e+02	-1.024357e+01	0	0
2765859	2.373228e+00	-2.023701e+02	2.144274e+00	0	0
2767813	2.374000e+00	-2.069132e+02	-1.614755e+01	0	0
2769766	2.374000e+00	-2.136005e+02	-7.188983e+01	0	0
2771719	2.374228e+00	-2.266405e+02	-3.022284e+01	0	0
2773672	2.375000e+00	-2.334271e+02	4.212145e+00	0	0
2775625	2.375228e+00	-2.442291e+02	-3.692799e+00	0	0
2777578	2.376000e+00	-2.432473e+02	-8.699272e+00	0	0
2779531	2.376000e+00	-2.559547e+02	1.387032e+01	0	0
2781484	2.376229e+00	-2.342186e+02	6.074854e+01	0	0
2783438	2.377000e+00	-2.076761e+02	-1.134761e+01	0	0
2785391	2.377000e+00	-1.982004e+02	4.100925e+00	0	0
2787344	2.377229e+00	-1.863093e+02	-9.854755e+00	0	0
2789297	2.378000e+00	-2.144595e+02	-6.860911e+01	0	0
2791250	2.378229e+00	-2.258623e+02	-2.883588e+01	0	0
2793203	2.379000e+00	-2.377152e+02	4.202287e+00	0	0
2795156	2.379000e+00	-2.367689e+02	3.182149e+01	0	0
2797109	2.379229e+00	-2.499825e+02	5.731145e+01	0	0
2799063	2.380000e+00	-2.435887e+02	8.878896e+01	0	0
2801016	2.380000e+00	-2.354412e+02	1.196501e+02	0	0
2802969	2.380230e+00	-2.190058e+02	1.032948e+02	0	0
2804922	2.381000e+00	-2.265605e+02	1.352106e+01	0	0
2806875	2.381230e+00	-2.171715e+02	-1.079558e+02	0	0
2808828	2.382000e+00	-2.259081e+02	-2.213859e+02	0	0
2810781	2.382000e+00	-2.133785e+02	-2.537276e+02	0	0
2812734	2.382230e+00	-2.180553e+02	-1.826980e+02	0	0
2814688	2.383000e+00	-2.545239e+02	-6.542889e+01	0	0
2816641	2.383000e+00	-2.901992e+02	4.287345e+01	0	0
2818594	2.383231e+00	-3.122067e+02	1.200845e+02	0	0
2820547	2.384000e+00	-3.086427e+02	1.155953e+02	0	0
2822500	2.384000e+00	-2.789285e+02	7.557069e+01	0	0
2824453	2.384231e+00	-2.179199e+02	4.351264e+01	0	0
2826406	2.385000e+00	-1.289188e+02	5.108775e+00	0	0
2828359	2.385231e+00	-4.872141e+01	-4.329352e+01	0	0
2830313	2.386000e+00	3.947456e+01	-4.481422e+01	0	0
2832266	2.386000e+00	1.741684e+02	-1.606084e+01	0	0
2834219	2.386231e+00	3.998146e+02	4.524218e+00	0	0
2836172	2.387000e+00	6.796878e+02	-5.883387e+00	0	0
2838125	2.387000e+00	9.351639e+02	-1.458638e+00	0	0
2840078	2.387232e+00	1.195669e+03	4.616379e+01	0	0
2842031	2.388000e+00	1.457674e+03	5.583227e+01	0	0
2843984	2.388000e+00	1.729251e+03	-2.073683e+00	0	0
2845938	2.388232e+00	1.901199e+03	6.578021e+00	0	0
2847891	2.389000e+00	1.903028e+03	-1.392003e+01	0	0
2849844	2.389000e+00	1.785066e+03	-7.765808e+01	0	0
2851797	2.389232e+00	1.459101e+03	-4.373122e+01	0	0
2853750	2.390000e+00	1.065918e+03	5.164496e+00	0	0
2855703	2.390232e+00	8.555070e+02	1.556162e-01	0	0
2857656	2.391000e+00	6.186867e+02	-4.754226e+00	0	0
2859609	2.391000e+00	3.905417e+02	1.537097e+01	0	0
2861563	2.391000e+00	2.438706e+01	6.028157e+01	0	0
2863516	2.391233e+00	-3.236226e+02	-1.490142e+01	0	0
2865469	2.392000e+00	-4.015749e+02	2.472642e-01	0	0
2867422	2.392000e+00	-3.956312e+02	-2.253009e+01	0	0
2869375	2.392233e+00	-3.636902e+02	-6.766695e+01	0	0
2871328	2.393000e+00	-3.448501e+02	-5.349429e+00	0	0
2873281	2.393233e+00	-3.083436e+02	-9.426952e+00	0	0
2875234	2.394000e+00	-2.486981e+02	-9.547512e+00	0	0
2877188	2.394000e+00	-2.028122e+02	-1.394959e+01	0	0
2879141	2.394234e+00	-1.624454e+02	1.763546e+00	0	0
2881094	2.395000e+00	-1.601972e+02	5.107987e+01	0	0
2883047	2.395000e+00	-1.636830e+02	2.119578e+01	0	0
2885000	2.395234e+00	-1.549473e+02	-4.679475e+00	0	0
2886953	2.396000e+00	-1.537953e+02	-1.000539e+01	0	0
2888906	2.396000e+00	-1.564468e+02	-5.488451e+01	0	0
2890859	2.396234e+00	-1.692787e+02	-4.679770e+01	0	0
2892813	2.397000e+00	-1.632779e+02	-2.009304e+01	0	0
2894766	2.397235e+00	-1.636190e+02	3.100940e+00	0	0
2896719	2.398000e+00	-1.655748e+02	-9.493704e-01	0	0
2898672	2.398000e+00	-1.682933e+02	1.495764e+01	0	0
2900625	2.398000e+00	-1.637789e+02	5.573421e+01	0	0
2902578	2.398235e+00	-1.566893e+02	1.863366e+01	0	0
2904531	2.399000e+00	-1.456739e+02	6.560757e+00	0	0
2906484	2.399235e+00	-1.500349e+02	-5.769505e+00	0	0
2908438	2.400000e+00	-1.554520e+02	-5.373301e+01	0	0
2910391	2.400000e+00	-1.687502e+02	-4.714181e+01	0	0
2912344	2.400235e+00	-1.693828e+02	-3.195741e+01	0	0
2914297	2.401000e+00	-1.691696e+02	8.144528e+00	0	0
2916250	2.401000e+00	-1.753579e+02	1.782294e+00	0	0
2918203	2.401236e+00	-1.725209e+02	5.192307e+00	0	0
2920156	2.402000e+00	-1.660899e+02	4.013178e+01	0	0
2922109	2.402000e+00	-1.488010e+02	5.701350e+01	0	0
2924063	2.402236e+00	-1.494797e+02	-6.813121e+00	0	0
2926016	2.403000e+00	-1.476886e+02	6.155377e+00	0	0
2927969	2.403236e+00	-1.350146e+02	-1.495814e+01	0	0
2929922	2.404000e+00	-1.388977e+02	-7.232877e+01	0	0
2931875	2.404000e+00	-1.470463e+02	-3.003158e+01	0	0
2933828	2.404236e+00	-1.492916e+02	2.541008e+00	0	0
2935781	2.405000e+00	-1.565217e+02	-1.163271e-02	0	0
2937734	2.405000e+00	-1.614436e+02	-5.075290e+00	0	0
2939688	2.405237e+00	-1.651496e+02	1.703424e+01	0	0
2941641	2.406000e+00	-1.640448e+02	6.275294e+01	0	0
2943594	2.406000e+00	-1.434427e+02	-1.251731e+01	0	0
2945547	2.406237e+00	-1.271059e+02	2.336982e+00	0	0
2947500	2.407000e+00	-1.304305e+02	-2.127199e+01	0	0
2949453	2.407000e+00	-1.395228e+02	-7.326227e+01	0	0
2951406	2.407237e+00	-1.303453e+02	-1.838089e+01	0	0
2953359	2.408000e+00	-1.304281e+02	-3.552705e+00	0	0
2955313	2.408238e+00	-1.318384e+02	-2.311745e+00	0	0
2957266	2.409000e+00	-1.163557e+02	-5.285328e+00	0	0
2959219	2.409000e+00	-1.233640e+02	1.338566e+01	0	0
2961172	2.409000e+00	-1.209433e+02	5.768885e+01	0	0
2963125	2.409238e+00	-1.105416e+02	7.494413e+00	0	0
2965078	2.410000e+00	-1.074550e+02	1.804138e+00	0	0
2967031	2.410238e+00	-1.157734e+02	-1.000981e+01	0	0
2968984	2.411000e+00	-1.074849e+02	-5.497725e+01	0	0
2970938	2.411000e+00	-1.041520e+02	-4.989619e+01	0	0
2972891	2.411239e+00	-9.934246e+01	-2.621810e+01	0	0
2974844	2.412000e+00	-9.639366e+01	4.167468e+00	0	0
2976797	2.412000e+00	-1.002885e+02	-2.000522e+00	0	0
2978750	2.412239e+00	-9.447387e+01	7.491872e+00	0	0
2980703	2.413000e+00	-9.788518e+01	4.860424e+01	0	0
2982656	2.413000e+00	-8.262593e+01	3.756816e+01	0	0
2984609	2.413239e+00	-7.508478e+01	-3.954738e+00	0	0
2986563	2.414000e+00	-6.191001e+01	-8.672184e+00	0	0
2988516	2.414000e+00	-6.856977e+01	-5.142150e+01	0	0
2990469	2.414239e+00	-5.938722e+01	-4.887298e+01	0	0
2992422	2.415000e+00	-5.925000e+01	-2.710552e+01	0	0
2994375	2.415239e+00	-8.260239e+01	4.418553e+00	0	0
2996328	2.416000e+00	-7.320286e+01	-3.195323e+00	0	0
2998281	2.416000e+00	-7.788606e+01	1.006778e+01	0	0
3000234	2.416239e+00	-7.477786e+01	6.244593e+01	0	0
3002188	2.417000e+00	-4.576519e+01	4.157699e+01	0	0
3004141	2.417000e+00	-3.999535e+01	-1.060971e+01	0	0
3006094	2.417240e+00	-2.658243e+01	-1.920496e+00	0	0
3008047	2.418000e+00	-1.445824e+01	-2.489561e+01	0	0
3010000	2.418000e+00	-1.754859e+01	-7.341362e+01	0	0
3011953	2.418240e+00	-1.232115e+01	-3.139646e+01	0	0
3013906	2.419000e+00	-2.387092e+01	8.607579e+00	0	0
3015859	2.419240e+00	-1.563239e+01	8.602786e+00	0	0
3017813	2.420000e+00	-1.999286e+01	1.890517e+00	0	0
3019766	2.420000e+00	-7.179509e+00	2.653005e+01	0	0
3021719	2.420000e+00	1.176262e+00	7.122360e+01	0	0
3023672	2.420241e+00	1.209782e+01	-5.963124e+00	0	0
3025625	2.421000e+00	3.325716e+01	1.355756e+01	0	0
3027578	2.421000e+00	4.211279e+01	-2.609029e+01	0	0
3029531	2.421241e+00	4.634088e+01	-7.921940e+01	0	0
3031484	2.422000e+00	5.677624e+01	-2.815853e+01	0	0
3033438	2.422000e+00	6.361892e+01	-3.736245e+00	0	0
3035391	2.422242e+00	5.644142e+01	2.079176e+01	0	0
3037344	2.423000e+00	4.552366e+01	4.752970e+01	0	0
3039297	2.423242e+00	4.372901e+01	7.515861e+01	0	0
3041250	2.424000e+00	6.473751e+01	1.069624e+02	0	0
3043203	2.424000e+00	9.075144e+01	9.287561e+01	0	0
3045156	2.424000e+00	1.211067e+02	2.240142e+00	0	0
3047109	2.424242e+00	1.490733e+02	-1.149429e+02	0	0
3049063	2.425000e+00	1.675042e+02	-2.250092e+02	0	0
3051016	2.425000e+00	1.819520e+02	-2.526835e+02	0	0
3052969	2.425242e+00	1.867142e+02	-1.820144e+02	0	0
3054922	2.426000e+00	1.814795e+02	-6.957014e+01	0	0
3056875	2.426243e+00	1.914330e+02	3.504745e+01	0	0
3058828	2.427000e+00	1.924637e+02	1.072732e+02	0	0
3060781	2.427000e+00	2.040121e+02	9.671572e+01	0	0
3062734	2.427000e+00	2.258167e+02	5.965779e+01	0	0
3064688	2.427243e+00	2.502808e+02	3.548526e+01	0	0
3066641	2.428000e+00	2.497228e+02	-1.264721e+00	0	0
3068594	2.428243e+00	2.520707e+02	-3.936323e+01	0	0
3070547	2.429000e+00	2.524353e+02	-4.524270e+01	0	0
3072500	2.429000e+00	2.676222e+02	-2.480078e+01	0	0
3074453	2.429243e+00	2.952242e+02	-1.085878e+01	0	0
3076406	2.430000e+00	3.191214e+02	-1.164055e+01	0	0
3078359	2.430000e+00	3.283618e+02	6.661299e-01	0	0
3080313	2.430244e+00	3.338878e+02	5.458388e+01	0	0
3082266	2.431000e+00	3.693057e+02	5.442665e+01	0	0
3084219	2.431000e+00	3.885666e+02	-5.002740e-01	0	0
3086172	2.431000e+00	4.091878e+02	-3.847399e-01	0	0
3088125	2.431244e+00	4.253429e+02	-3.609271e+01	0	0
3090078	2.432000e+00	4.214291e+02	-7.090258e+01	0	0
3092031	2.432244e+00	4.211657e+02	-2.935140e+01	0	0
3093984	2.433000e+00	4.222445e+02	2.229143e+00	0	0
3095938	2.433000e+00	4.083522e+02	2.067925e-01	0	0
3097891	2.433000e+00	3.911234e+02	-4.712899e+00	0	0
3099844	2.433245e+00	4.330947e+02	1.832899e+01	0	0
3101797	2.434000e+00	4.483694e+02	5.954718e+01	0	0
3103750	2.434000e+00	4.489017e+02	-1.453611e+01	0	0
3105703	2.434245e+00	4.487831e+02	2.394868e+00	0	0
3107656	2.435000e+00	4.471411e+02	-1.919828e+01	0	0
3109609	2.435000e+00	4.303752e+02	-6.950950e+01	0	0
3111563	2.435246e+00	3.992074e+02	-1.756285e+01	0	0
3113516	2.436000e+00	3.621609e+02	-2.947579e+00	0	0
3115469	2.436246e+00	3.200686e+02	-2.892113e-01	0	0
3117422	2.437000e+00	2.936725e+02	-2.602126e+00	0	0
3119375	2.437000e+00	2.725957e+02	1.492010e+01	0	0
3121328	2.437000e+00	2.543901e+02	4.796982e+01	0	0
3123281	2.437246e+00	2.340129e+02	-8.771955e+00	0	0
3125234	2.438000e+00	2.374721e+02	4.665029e+00	0	0
3127188	2.438000e+00	1.947406e+02	-7.626395e+00	0	0
3129141	2.438246e+00	1.761224e+02	-4.770878e+01	0	0
3131094	2.439000e+00	1.483658e+02	-3.805107e+01	0	0
3133047	2.439000e+00	1.223103e+02	-2.441677e+01	0	0
3135000	2.439246e+00	8.860251e+01	3.789487e+00	0	0
3136953	2.440000e+00	6.076489e+01	-5.357218e+00	0	0
3138906	2.440000e+00	3.657630e+01	5.769972e+00	0	0
3140859	2.440247e+00	2.703694e+01	4.742009e+01	0	0
3142813	2.441000e+00	6.137354e+00	2.683896e+01	0	0
3144766	2.441000e+00	2.444640e+00	-4.905116e+00	0	0
3146719	2.441247e+00	-1.101589e+01	-9.986675e+00	0	0
3148672	2.442000e+00	-5.193552e+01	-4.649182e+01	0	0
3150625	2.442000e+00	-8.261359e+01	-5.156632e+01	0	0
3152578	2.442247e+00	-9.724661e+01	-3.748383e+01	0	0
3154531	2.443000e+00	-1.053403e+02	1.088872e+00	0	0
3156484	2.443000e+00	-1.381748e+02	-7.778829e+00	0	0
3158438	2.443248e+00	-1.311687e+02	6.952334e+00	0	0
3160391	2.444000e+00	-1.314356e+02	5.709774e+01	0	0
3162344	2.444000e+00	-1.285538e+02	3.482772e+01	0	0
3164297	2.444000e+00	-9.790129e+01	-7.418056e+00	0	0
3166250	2.444248e+00	-9.277429e+01	-2.985509e+00	0	0
3168203	2.445000e+00	-8.888238e+01	-3.529484e+01	0	0
3170156	2.445000e+00	-9.081328e+01	-6.489454e+01	0	0
3172109	2.445248e+00	-1.275850e+02	-2.502998e+01	0	0
3174063	2.446000e+00	-1.399186e+02	4.538642e-01	0	0
3176016	2.446000e+00	-1.569903e+02	-2.118241e+00	0	0
3177969	2.446249e+00	-1.575652e+02	-7.582465e+00	0	0
3179922	2.447000e+00	-1.629350e+02	1.749074e+01	0	0
3181875	2.447000e+00	-1.566056e+02	5.601479e+01	0	0
3183828	2.447249e+00	-1.447086e+02	-1.345657e+01	0	0
3185781	2.448000e+00	-1.455311e+02	3.748142e+00	0	0
3187734	2.448000e+00	-1.411819e+02	-1.847022e+01	0	0
3189688	2.448249e+00	-1.596955e+02	-7.218585e+01	0	0
3191641	2.449000e+00	-1.625264e+02	-2.709229e+01	0	0
3193594	2.449000e+00	-1.677517e+02	-7.669140e+00	0	0
3195547	2.449250e+00	-1.726486e+02	-8.642620e+00	0	0
3197500	2.450000e+00	-1.644069e+02	-1.171160e+01	0	0
3199453	2.450000e+00	-1.675346e+02	7.894062e+00	0	0
3201406	2.450250e+00	-1.687760e+02	4.076958e+01	0	0
3203359	2.451000e+00	-1.536143e+02	-2.152022e+01	0	0
3205313	2.451000e+00	-1.417747e+02	-3.919687e+00	0	0
3207266	2.451250e+00	-1.336794e+02	-1.867809e+01	0	0
3209219	2.452000e+00	-1.484236e+02	-6.232510e+01	0	0
3211172	2.452000e+00	-1.536403e+02	-4.371021e+01	0	0
3213125	2.452250e+00	-1.388975e+02	-2.799712e+01	0	0
3215078	2.453000e+00	-1.721622e+02	1.485833e+00	0	0
3217031	2.453000e+00	-1.730462e+02	-6.908870e+00	0	0
3218984	2.453000e+00	-1.793385e+02	9.711208e+00	0	0
3220938	2.453251e+00	-1.636292e+02	5.479473e+01	0	0
3222891	2.454000e+00	-1.474609e+02	2.099950e+01	0	0
3224844	2.454000e+00	-1.374071e+02	3.873009e-01	0	0
3226797	2.454251e+00	-1.363904e+02	-1.380472e+01	0	0
3228750	2.455000e+00	-1.377070e+02	-5.151172e+01	0	0
3230703	2.455251e+00	-1.536347e+02	-5.005332e+01	0	0
3232656	2.456000e+00	-1.552336e+02	-1.148352e+01	0	0
3234609	2.456000e+00	-1.622623e+02	9.674617e+00	0	0
3236563	2.456000e+00	-1.712951e+02	4.141037e+01	0	0
3238516	2.456252e+00	-1.724822e+02	6.562140e+01	0	0
3240469	2.457000e+00	-1.780677e+02	1.086911e+02	0	0
3242422	2.457000e+00	-1.635288e+02	1.273482e+02	0	0
3244375	2.457000e+00	-1.874882e+02	4.839334e+01	0	0
3246328	2.457252e+00	-1.682948e+02	-9.867281e+01	0	0
3248281	2.458000e+00	-1.666264e+02	-2.187122e+02	0	0
3250234	2.458000e+00	-1.765768e+02	-2.611582e+02	0	0
3252188	2.458253e+00	-1.675170e+02	-2.119727e+02	0	0
3254141	2.459000e+00	-1.628668e+02	-1.314070e+02	0	0
3256094	2.459000e+00	-1.710297e+02	-3.007606e+01	0	0
3258047	2.459000e+00	-1.770149e+02	7.593093e+01	0	0
3260000	2.459253e+00	-1.773495e+02	1.204093e+02	0	0
3261953	2.460000e+00	-1.598797e+02	9.180726e+01	0	0
3263906	2.460000e+00	-1.529815e+02	3.345889e+01	0	0
3265859	2.460253e+00	-1.454825e+02	2.664903e+00	0	0
3267813	2.461000e+00	-1.407444e+02	-4.856806e+01	0	0
3269766	2.461000e+00	-1.617071e+02	-8.364865e+01	0	0
3271719	2.461253e+00	-1.618146e+02	-2.921690e+01	0	0
3273672	2.462000e+00	-1.653345e+02	-2.492267e+01	0	0
3275625	2.462000e+00	-1.804047e+02	-1.319454e+01	0	0
3277578	2.462254e+00	-1.711839e+02	-4.297470e+00	0	0
3279531	2.463000e+00	-1.675935e+02	2.490665e+01	0	0
3281484	2.463000e+00	-1.650883e+02	5.702933e+01	0	0
3283438	2.463000e+00	-1.614470e+02	-2.543478e+00	0	0
3285391	2.463254e+00	-1.426584e+02	1.433746e+01	0	0
3287344	2.464000e+00	-1.275868e+02	-1.874997e+00	0	0
3289297	2.464000e+00	-1.439080e+02	-5.306883e+01	0	0
3291250	2.464254e+00	-1.552787e+02	-4.368706e+01	0	0
3293203	2.465000e+00	-1.698912e+02	-2.271891e+01	0	0
3295156	2.465000e+00	-1.618781e+02	7.046914e+00	0	0
3297109	2.465254e+00	-1.560356e+02	-1.100575e+00	0	0
3299063	2.466000e+00	-1.711104e+02	1.480773e+01	0	0
3301016	2.466000e+00	-1.545755e+02	5.830570e+01	0	0
3302969	2.466000e+00	-1.441867e+02	2.291708e+01	0	0
3304922	2.466255e+00	-1.388193e+02	2.370358e+00	0	0
3306875	2.467000e+00	-1.308384e+02	-8.780229e+00	0	0
3308828	2.467000e+00	-1.254547e+02	-5.544528e+01	0	0
3310781	2.467255e+00	-1.185566e+02	-4.638940e+01	0	0
3312734	2.468000e+00	-1.360614e+02	-1.742589e+01	0	0
3314688	2.468000e+00	-1.466910e+02	3.924170e+00	0	0
3316641	2.468256e+00	-1.489556e+02	-2.905569e+00	0	0
3318594	2.469000e+00	-1.507538e+02	1.434008e+01	0	0
3320547	2.469000e+00	-1.482914e+02	6.121120e+01	0	0
3322500	2.469000e+00	-1.691588e+02	2.459238e+01	0	0
3324453	2.469000e+00	-1.535670e+02	-1.320090e+00	0	0
3326406	2.469256e+00	-1.357020e+02	-3.714547e+00	0	0
3328359	2.470000e+00	-1.220115e+02	-4.168147e+01	0	0
3330313	2.470256e+00	-1.421753e+02	-6.485674e+01	0	0
3332266	2.471000e+00	-1.541142e+02	-3.060569e+01	0	0
3334219	2.471000e+00	-1.585828e+02	5.978082e+00	0	0
3336172	2.471000e+00	-1.819596e+02	1.423872e+00	0	0
3338125	2.471257e+00	-1.759769e+02	5.595025e-01	0	0
3340078	2.472000e+00	-1.621589e+02	3.182244e+01	0	0
3342031	2.472000e+00	-1.383618e+02	6.189935e+01	0	0
3343984	2.472000e+00	-1.468917e+02	-1.153258e+01	0	0
3345938	2.472257e+00	-1.334081e+02	4.492132e+00	0	0
3347891	2.473000e+00	-1.293650e+02	-1.898405e+01	0	0
3349844	2.473257e+00	-1.338543e+02	-7.769274e+01	0	0
3351797	2.474000e+00	-1.370076e+02	-3.310145e+01	0	0
3353750	2.474000e+00	-1.521114e+02	4.962307e+00	0	0
3355703	2.474000e+00	-1.601590e+02	1.920601e+00	0	0
3357656	2.474257e+00	-1.606054e+02	-3.499339e+00	0	0
3359609	2.475000e+00	-1.646131e+02	1.888221e+01	0	0
3361563	2.475000e+00	-1.569357e+02	5.852002e+01	0	0
3363516	2.475000e+00	-1.393483e+02	-1.093540e+01	0	0
3365469	2.475258e+00	-1.222238e+02	-1.645925e+00	0	0
3367422	2.476000e+00	-1.375631e+02	-2.607484e+01	0	0
3369375	2.476000e+00	-1.326491e+02	-7.140646e+01	0	0
3371328	2.476258e+00	-1.378309e+02	-3.122594e+01	0	0
3373281	2.477000e+00	-1.448446e+02	-2.568648e+01	0	0
3375234	2.477000e+00	-1.618837e+02	-6.495805e+00	0	0
3377188	2.477259e+00	-1.780040e+02	-1.269650e+01	0	0
3379141	2.478000e+00	-1.761551e+02	5.229875e+00	0	0
3381094	2.478000e+00	-1.726698e+02	5.221693e+01	0	0
3383047	2.478000e+00	-1.541879e+02	1.391081e+01	0	0
3385000	2.478259e+00	-1.570379e+02	-7.857511e+00	0	0
3386953	2.479000e+00	-1.311202e+02	-2.997402e+00	0	0
3388906	2.479000e+00	-1.351025e+02	-4.771164e+01	0	0
3390859	2.479259e+00	-1.223347e+02	-4.263873e+01	0	0
3392813	2.480000e+00	-1.141857e+02	-9.603583e+00	0	0
3394766	2.480000e+00	-1.193902e+02	1.853231e+01	0	0
3396719	2.480000e+00	-8.425825e+01	4.770614e+01	0	0
3398672	2.480260e+00	-4.260521e+01	7.238040e+01	0	0
3400625	2.481000e+00	-1.455537e+01	1.081821e+02	0	0
3402578	2.481000e+00	-1.660195e+01	9.421488e+01	0	0
3404531	2.481260e+00	8.084298e+00	9.877316e+00	0	0
3406484	2.482000e+00	2.260882e+01	-1.097090e+02	0	0
3408438	2.482000e+00	1.302922e+01	-2.166129e+02	0	0
3410391	2.482260e+00	1.739291e+01	-2.486218e+02	0	0
3412344	2.483000e+00	4.988438e+00	-2.062629e+02	0	0
3414297	2.483000e+00	-1.171400e+01	-1.299076e+02	0	0
3416250	2.483000e+00	-2.845860e+00	-2.153436e+01	0	0
3418203	2.483261e+00	2.152659e+01	9.024916e+01	0	0
3420156	2.484000e+00	3.942920e+01	1.299405e+02	0	0
3422109	2.484000e+00	3.885918e+01	9.834929e+01	0	0
3424063	2.484000e+00	7.371385e+01	3.673105e+01	0	0
3426016	2.484261e+00	9.475425e+01	3.947364e+00	0	0
3427969	2.485000e+00	8.110573e+01	-3.998570e+01	0	0
3429922	2.485000e+00	7.991174e+01	-7.303491e+01	0	0
3431875	2.485261e+00	7.604333e+01	-3.275300e+01	0	0
3433828	2.486000e+00	9.849155e+01	-7.442667e+00	0	0
3435781	2.486000e+00	1.145290e+02	6.233993e+00	0	0
3437734	2.486261e+00	9.902027e+01	-3.945360e+00	0	0
3439688	2.487000e+00	1.007062e+02	2.126217e+01	0	0
3441641	2.487000e+00	1.084847e+02	6.280945e+01	0	0
3443594	2.487000e+00	1.184082e+02	-6.845317e-01	0	0
3445547	2.487262e+00	1.159421e+02	1.609465e+01	0	0
3447500	2.488000e+00	7.917012e+01	-7.733324e+00	0	0
3449453	2.488000e+00	7.006462e+01	-6.051472e+01	0	0
3451406	2.488262e+00	7.512794e+01	-2.966891e+01	0	0
3453359	2.489000e+00	7.311948e+01	-9.128680e+00	0	0
3455313	2.489000e+00	5.800890e+01	-4.130993e+00	0	0
3457266	2.489000e+00	2.294696e+01	-7.694495e+00	0	0
3459219	2.489263e+00	-4.903471e+00	8.078124e+00	0	0
3461172	2.490000e+00	-3.897018e+01	5.247768e+01	0	0
3463125	2.490000e+00	-5.394331e+01	2.390085e+01	0	0
3465078	2.490000e+00	-5.244106e+01	-2.270589e+00	0	0
3467031	2.490263e+00	-5.531841e+01	-7.796119e+00	0	0
3468984	2.491000e+00	-7.112126e+01	-4.575494e+01	0	0
3470938	2.491000e+00	-1.147002e+02	-4.674462e+01	0	0
3472891	2.491264e+00	-1.078693e+02	-2.608982e+01	0	0
3474844	2.492000e+00	-1.269572e+02	4.622359e+00	0	0
3476797	2.492000e+00	-1.641181e+02	-2.392527e+00	0	0
3478750	2.492000e+00	-1.824511e+02	1.472198e+01	0	0
3480703	2.492264e+00	-1.970622e+02	5.625801e+01	0	0
3482656	2.493000e+00	-2.005189e+02	2.385597e+01	0	0
3484609	2.493000e+00	-1.863352e+02	4.435543e+00	0	0
3486563	2.493264e+00	-1.823251e+02	-6.051414e+00	0	0
3488516	2.494000e+00	-2.100438e+02	-5.139148e+01	0	0
3490469	2.494000e+00	-2.195243e+02	-5.801376e+01	0	0
3492422	2.494264e+00	-2.173024e+02	-4.006676e+01	0	0
3494375	2.495000e+00	-2.273936e+02	1.150703e+01	0	0
3496328	2.495000e+00	-2.293570e+02	2.582916e+00	0	0
3498281	2.495000e+00	-2.440494e+02	4.472412e+00	0	0
3500234	2.495265e+00	-2.274295e+02	4.371764e+01	0	0
3502188	2.496000e+00	-2.188365e+02	6.560765e+01	0	0
3504141	2.496000e+00	-2.228336e+02	-8.149040e+00	0	0
3506094	2.496000e+00	-2.127734e+02	8.712029e+00	0	0
3508047	2.496265e+00	-1.908302e+02	-1.966063e+01	0	0
3510000	2.497000e+00	-1.920979e+02	-8.135279e+01	0	0
3511953	2.497000e+00	-1.881011e+02	-2.961114e+01	0	0
3513906	2.497265e+00	-2.100095e+02	-1.670883e+00	0	0
3515859	2.498000e+00	-2.807109e+02	-4.330409e+00	0	0
3517813	2.498000e+00	-2.662066e+02	-1.117083e+01	0	0
3519766	2.498000e+00	-2.476539e+02	1.560631e+01	0	0
3521719	2.498266e+00	-2.224623e+02	6.005102e+01	0	0
3523672	2.499000e+00	-2.067508e+02	-1.658205e+01	0	0
3525625	2.499000e+00	-2.167738e+02	2.926764e+00	0	0
3527578	2.499266e+00	-2.260031e+02	-2.262041e+01	0	0
3529531	2.500000e+00	-2.259645e+02	-6.859170e+01	0	0
3531484	2.500000e+00	-2.424432e+02	-9.806126e+00	0	0
3533438	2.500000e+00	-2.587472e+02	-5.652024e-01	0	0
3535391	2.500267e+00	-2.536866e+02	5.764701e-01	0	0
3537344	2.501000e+00	-2.390732e+02	-4.840887e+00	0	0
3539297	2.501000e+00	-2.461929e+02	1.456297e+01	0	0
3541250	2.501000e+00	-2.453463e+02	5.403231e+01	0	0
3543203	2.501267e+00	-2.304292e+02	3.281804e+00	0	0
3545156	2.502000e+00	-2.139756e+02	7.580650e-01	0	0
3547109	2.502000e+00	-2.170624e+02	-1.582292e+01	0	0
3549063	2.502267e+00	-2.490141e+02	-6.323672e+01	0	0
3551016	2.503000e+00	-2.961367e+02	-5.249651e+01	0	0
3552969	2.503000e+00	-3.295546e+02	-3.349003e+01	0	0
3554922	2.503000e+00	-3.305481e+02	1.379197e+00	0	0
3556875	2.503268e+00	-3.126881e+02	-6.950201e+00	0	0
3558828	2.504000e+00	-2.750665e+02	6.181438e+00	0	0
3560781	2.504000e+00	-1.785375e+02	5.373210e+01	0	0
3562734	2.504000e+00	-1.027473e+02	3.723715e+01	0	0
3564688	2.504268e+00	5.576093e+00	-6.469429e+00	0	0
3566641	2.505000e+00	1.331353e+02	-1.602715e+01	0	0
3568594	2.505000e+00	3.101640e+02	-6.755041e+01	0	0
3570547	2.505268e+00	5.671795e+02	-5.481281e+01	0	0
3572500	2.506000e+00	8.574638e+02	-2.909177e+01	0	0
3574453	2.506000e+00	1.108155e+03	-7.518313e-02	0	0
3576406	2.506268e+00	1.376268e+03	-8.391145e+00	0	0
3578359	2.507000e+00	1.641304e+03	1.089164e+01	0	0
3580313	2.507000e+00	1.827245e+03	6.580818e+01	0	0
3582266	2.507000e+00	1.866165e+03	3.277417e+01	0	0
3584219	2.507000e+00	1.747089e+03	-1.216596e+01	0	0
3586172	2.507269e+00	1.493742e+03	3.608395e-01	0	0
3588125	2.508000e+00	1.124305e+03	-2.096119e+01	0	0
3590078	2.508000e+00	9.074653e+02	-7.866835e+01	0	0
3592031	2.508269e+00	6.971612e+02	-3.765109e+01	0	0
3593984	2.509000e+00	4.742696e+02	-1.584342e+00	0	0
3595938	2.509000e+00	6.840139e+01	-5.053995e+00	0	0
3597891	2.509000e+00	-3.239775e+02	-1.045089e+01	0	0
3599844	2.509270e+00	-4.287237e+02	1.800914e+01	0	0
3601797	2.510000e+00	-4.329817e+02	6.337897e+01	0	0
3603750	2.510000e+00	-3.779189e+02	-1.048430e+01	0	0
3605703	2.510000e+00	-3.120211e+02	5.849835e+00	0	0
3607656	2.510000e+00	-2.680482e+02	-2.554790e+01	0	0
3609609	2.510270e+00	-1.940684e+02	-8.006799e+01	0	0
3611563	2.511000e+00	-1.894435e+02	-2.365266e+01	0	0
3613516	2.511000e+00	-1.887536e+02	-1.449158e+01	0	0
3615469	2.511271e+00	-2.090858e+02	-1.603799e+01	0	0
3617422	2.512000e+00	-2.404924e+02	-2.285617e+01	0	0
3619375	2.512000e+00	-2.108562e+02	-4.285943e+00	0	0
3621328	2.512000e+00	-1.882560e+02	4.367237e+01	0	0
3623281	2.512271e+00	-1.769267e+02	1.465500e+00	0	0
3625234	2.513000e+00	-1.743784e+02	-1.752251e+01	0	0
3627188	2.513000e+00	-1.645297e+02	-2.203081e+01	0	0
3629141	2.513000e+00	-1.734296e+02	-4.483183e+01	0	0
3631094	2.513271e+00	-1.798250e+02	-2.633664e+01	0	0
3633047	2.514000e+00	-1.711146e+02	-6.645823e+00	0	0
3635000	2.514000e+00	-1.761138e+02	3.117325e+01	0	0
3636953	2.514272e+00	-1.968919e+02	5.773380e+01	0	0
3638906	2.515000e+00	-1.944904e+02	8.580114e+01	0	0
3640859	2.515000e+00	-1.983890e+02	1.171431e+02	0	0
3642813	2.515000e+00	-1.751393e+02	9.720778e+01	0	0
3644766	2.515000e+00	-1.578644e+02	1.071282e+01	0	0
3646719	2.515272e+00	-1.501385e+02	-1.145507e+02	0	0
3648672	2.516000e+00	-1.264955e+02	-2.241441e+02	0	0
3650625	2.516000e+00	-1.445100e+02	-2.591405e+02	0	0
3652578	2.516000e+00	-1.457433e+02	-2.074124e+02	0	0
3654531	2.516272e+00	-1.486111e+02	-1.177232e+02	0	0
3656484	2.517000e+00	-1.706519e+02	-1.302820e+01	0	0
3658438	2.517000e+00	-1.704406e+02	8.558223e+01	0	0
3660391	2.517273e+00	-1.797768e+02	1.156404e+02	0	0
3662344	2.518000e+00	-1.679851e+02	9.150463e+01	0	0
3664297	2.518000e+00	-1.633679e+02	4.711728e+01	0	0
3666250	2.518000e+00	-1.448541e+02	1.621246e+01	0	0
3668203	2.518000e+00	-1.474594e+02	-2.295738e+01	0	0
3670156	2.518273e+00	-1.465992e+02	-6.790545e+01	0	0
3672109	2.519000e+00	-1.418474e+02	-2.441823e+01	0	0
3674063	2.519000e+00	-1.156698e+02	8.696904e+00	0	0
3676016	2.519274e+00	-9.230884e+01	4.252244e+00	0	0
3677969	2.520000e+00	-1.093375e+02	1.245069e+00	0	0
3679922	2.520000e+00	-1.512658e+02	3.078321e+01	0	0
3681875	2.520000e+00	-1.647729e+02	7.457589e+01	0	0
3683828	2.520274e+00	-1.480825e+02	-1.179544e+01	0	0
3685781	2.521000e+00	-1.567570e+02	5.187774e+00	0	0
3687734	2.521000e+00	-1.533740e+02	-1.986333e+01	0	0
3689688	2.521000e+00	-1.406674e+02	-8.642413e+01	0	0
3691641	2.521275e+00	-1.386882e+02	-3.195471e+01	0	0
3693594	2.522000e+00	-1.237001e+02	3.005258e+00	0	0
3695547	2.522000e+00	-1.390248e+02	2.867158e+01	0	0
3697500	2.522000e+00	-1.435889e+02	5.260087e+01	0	0
3699453	2.522000e+00	-9.961263e+01	8.321832e+01	0	0
3701406	2.522275e+00	-6.197199e+01	1.125372e+02	0	0
3703359	2.523000e+00	-6.183065e+01	7.863459e+01	0	0
3705313	2.523000e+00	-8.349466e+01	-2.417110e+01	0	0
3707266	2.523000e+00	-1.028606e+02	-1.359370e+02	0	0
3709219	2.523275e+00	-1.263166e+02	-2.377796e+02	0	0
3711172	2.524000e+00	-1.006799e+02	-2.551554e+02	0	0
3713125	2.524000e+00	-8.361694e+01	-1.755821e+02	0	0
3715078	2.524275e+00	-9.209693e+01	-5.384232e+01	0	0
3717031	2.525000e+00	-1.098544e+02	5.888742e+01	0	0
3718984	2.525000e+00	-1.187025e+02	1.311363e+02	0	0
3720938	2.525000e+00	-1.103389e+02	1.133950e+02	0	0
3722891	2.525000e+00	-7.392502e+01	6.968322e+01	0	0
3724844	2.525276e+00	-7.656839e+01	3.921347e+01	0	0
3726797	2.526000e+00	-5.834264e+01	-7.144638e+00	0	0
3728750	2.526000e+00	-5.762114e+01	-5.218431e+01	0	0
3730703	2.526000e+00	-6.550436e+01	-4.889974e+01	0	0
3732656	2.526276e+00	-5.553478e+01	-2.349705e+01	0	0
3734609	2.527000e+00	-6.264214e+01	-1.523488e+01	0	0
3736563	2.527000e+00	-4.478048e+01	-1.526953e+01	0	0
3738516	2.527000e+00	-1.664327e+01	2.393426e+00	0	0
3740469	2.527000e+00	-3.080097e+01	6.058351e+01	0	0
3742422	2.527277e+00	-8.565884e+01	4.970348e+01	0	0
3744375	2.528000e+00	-6.659729e+01	2.506500e+00	0	0
3746328	2.528277e+00	-4.590402e+01	-3.394859e+00	0	0
3748281	2.528723e+00	-3.715307e+01	-4.691038e+01	0	0
3750234	2.528277e+00	-2.426453e+01	-5.986564e+01	0	0
3752188	2.529000e+00	-5.212083e+00	-1.897203e+01	0	0
3754141	2.529000e+00	2.137367e+01	1.946200e+01	0	0
3756094	2.529278e+00	3.668892e+01	1.505302e+01	0	0
3758047	2.530000e+00	3.482373e+01	4.502659e+00	0	0
3760000	2.530000e+00	2.925213e+01	2.415239e+01	0	0
3761953	2.530000e+00	9.135224e+00	5.746200e+01	0	0
3763906	2.530000e+00	2.291182e+01	-2.429648e+01	0	0
3765859	2.530278e+00	6.998731e+01	-5.057511e+00	0	0
3767813	2.531000e+00	7.058859e+01	-3.972228e+01	0	0
3769766	2.531000e+00	4.679497e+01	-9.437885e+01	0	0
3771719	2.531279e+00	4.886149e+01	-3.148078e+01	0	0
3773672	2.532000e+00	6.857787e+01	-1.916605e+01	0	0
3775625	2.532000e+00	8.602085e+01	-1.324585e+01	0	0
3777578	2.532000e+00	8.493928e+01	-1.389732e+01	0	0
3779531	2.532000e+00	1.071638e+02	1.404963e+01	0	0
3781484	2.532279e+00	1.452075e+02	5.386509e+01	0	0
3783438	2.533000e+00	1.425550e+02	-8.230057e+00	0	0
3785391	2.533000e+00	1.284799e+02	1.037577e+01	0	0
3787344	2.533000e+00	1.285546e+02	-9.107607e+00	0	0
3789297	2.533280e+00	1.546451e+02	-5.674690e+01	0	0
3791250	2.534000e+00	1.490476e+02	-3.913991e+01	0	0
3793203	2.534000e+00	1.608490e+02	-2.651843e+01	0	0
3795156	2.534000e+00	2.074821e+02	3.583219e+00	0	0
3797109	2.534280e+00	2.169294e+02	-7.107518e+00	0	0
3799063	2.535000e+00	2.144061e+02	1.236484e+01	0	0
3801016	2.535000e+00	2.295118e+02	6.157493e+01	0	0
3802969	2.535000e+00	2.621866e+02	2.834018e+01	0	0
3804922	2.535000e+00	2.966541e+02	-8.401508e-01	0	0
3806875	2.535281e+00	3.167438e+02	-1.303983e+01	0	0
3808828	2.536000e+00	2.957509e+02	-6.478064e+01	0	0
3810781	2.536000e+00	2.689368e+02	-4.657708e+01	0	0
3812734	2.536000e+00	2.987808e+02	-1.425189e+01	0	0
3814688	2.536281e+00	3.266204e+02	1.093046e+00	0	0
3816641	2.537000e+00	3.634920e+02	-6.034140e+00	0	0
3818594	2.537000e+00	3.645737e+02	1.095022e+01	0	0
3820547	2.537000e+00	3.453608e+02	6.671387e+01	0	0
3822500	2.537282e+00	3.148209e+02	3.948232e+01	0	0
3824453	2.538000e+00	3.471221e+02	-4.098505e+00	0	0
3826406	2.538000e+00	4.146916e+02	-5.921724e+00	0	0
3828359	2.538000e+00	4.335179e+02	-5.287603e+01	0	0
3830313	2.538282e+00	4.475862e+02	-7.175615e+01	0	0
3832266	2.539000e+00	4.509491e+02	-4.595567e+01	0	0
3834219	2.539000e+00	4.369860e+02	1.693170e+01	0	0
3836172	2.539282e+00	3.726179e+02	9.685389e+00	0	0
3838125	2.539718e+00	3.719652e+02	7.610937e+00	0	0
3840078	2.539283e+00	3.952026e+02	4.206702e+01	0	0
3842031	2.540000e+00	4.382583e+02	7.200337e+01	0	0
3843984	2.540000e+00	4.474033e+02	-1.423303e+01	0	0
3845938	2.540000e+00	4.099855e+02	6.179965e+00	0	0
3847891	2.540283e+00	3.624181e+02	-3.372800e+01	0	0
3849844	2.541000e+00	3.284857e+02	-9.101323e+01	0	0
3851797	2.541000e+00	3.192409e+02	-2.049832e+01	0	0
3853750	2.541000e+00	2.926433e+02	-2.240026e+01	0	0
3855703	2.541000e+00	2.785407e+02	-2.001388e+01	0	0
3857656	2.541283e+00	2.544663e+02	-1.760907e+01	0	0
3859609	2.542000e+00	1.973811e+02	2.294138e+01	0	0
3861563	2.542000e+00	1.863698e+02	6.019121e+01	0	0
3863516	2.542000e+00	2.052462e+02	7.397035e-01	0	0
3865469	2.542284e+00	1.816683e+02	-2.691285e+00	0	0
3867422	2.543000e+00	1.510147e+02	-1.855320e+01	0	0
3869375	2.543000e+00	9.776175e+01	-7.556336e+01	0	0
3871328	2.543000e+00	8.907866e+01	-4.926554e+01	0	0
3873281	2.543000e+00	6.181048e+01	-1.432257e+01	0	0
3875234	2.543284e+00	2.372171e+01	9.403638e+00	0	0
3877188	2.544000e+00	3.151141e+01	2.778024e-01	0	0
3879141	2.544000e+00	-8.718907e+00	2.367208e+01	0	0
3881094	2.544000e+00	-2.712886e+01	7.113804e+01	0	0
3883047	2.544285e+00	3.103378e+00	1.450801e+01	0	0
3885000	2.545000e+00	-3.236427e+01	7.905181e-01	0	0
3886953	2.545000e+00	-5.921208e+01	-2.072577e+01	0	0
3888906	2.545000e+00	-7.156561e+01	-7.711859e+01	0	0
3890859	2.545285e+00	-9.109944e+01	-4.922040e+01	0	0
3892813	2.546000e+00	-7.774802e+01	-2.547512e+01	0	0
3894766	2.546000e+00	-9.910994e+01	6.682636e+00	0	0
3896719	2.546000e+00	-1.172396e+02	-3.448691e+00	0	0
3898672	2.546286e+00	-9.058034e+01	2.153433e+01	0	0
3900625	2.547000e+00	-7.652165e+01	8.273446e+01	0	0
3902578	2.547000e+00	-9.336927e+01	3.605821e+01	0	0
3904531	2.547000e+00	-9.328313e+01	2.974674e-01	0	0
3906484	2.547000e+00	-9.363064e+01	-9.316509e+00	0	0
3908438	2.547287e+00	-9.179970e+01	-6.985819e+01	0	0
3910391	2.548000e+00	-1.120862e+02	-8.056393e+01	0	0
3912344	2.548000e+00	-1.532763e+02	-3.690412e+01	0	0
3914297	2.548000e+00	-1.503310e+02	4.236247e+00	0	0
3916250	2.548000e+00	-1.388607e+02	-3.023118e+00	0	0
3918203	2.548000e+00	-1.084843e+02	4.535075e+00	0	0
3920156	2.548287e+00	-1.285117e+02	6.188810e+01	0	0
3922109	2.549000e+00	-1.698666e+02	7.207948e+01	0	0
3924063	2.549000e+00	-1.281297e+02	-1.514466e+01	0	0
3926016	2.549000e+00	-9.907146e+01	6.797372e+00	0	0
3927969	2.549288e+00	-8.389061e+01	-3.009584e+01	0	0
3929922	2.550000e+00	-1.438090e+02	-9.740900e+01	0	0
3931875	2.550000e+00	-1.844840e+02	-2.915023e+01	0	0
3933828	2.550000e+00	-1.495797e+02	-1.516097e+00	0	0
3935781	2.550288e+00	-1.465674e+02	-3.646195e+00	0	0
3937734	2.551000e+00	-1.407079e+02	-7.575476e+00	0	0
3939688	2.551000e+00	-1.071371e+02	3.382615e+01	0	0
3941641	2.551000e+00	-8.877420e+01	7.425673e+01	0	0
3943594	2.551289e+00	-1.126905e+02	-1.182654e+01	0	0
3945547	2.552000e+00	-1.183829e+02	4.342809e+00	0	0
3947500	2.552000e+00	-1.391644e+02	-2.926106e+01	0	0
3949453	2.552000e+00	-1.192651e+02	-9.383281e+01	0	0
3951406	2.552000e+00	-1.257435e+02	-3.443423e+01	0	0
3953359	2.552289e+00	-1.164329e+02	-7.091137e+00	0	0
3955313	2.553000e+00	-1.722345e+02	-9.204874e-01	0	0
3957266	2.553000e+00	-1.962942e+02	-9.470929e+00	0	0
3959219	2.553000e+00	-1.399998e+02	2.356863e+01	0	0
3961172	2.553000e+00	-1.296852e+02	8.097665e+01	0	0
3963125	2.553290e+00	-1.016789e+02	5.419085e+00	0	0
3965078	2.554000e+00	-9.353847e+01	2.389927e+00	0	0
3967031	2.554000e+00	-1.172599e+02	-2.581457e+01	0	0
3968984	2.554000e+00	-1.805185e+02	-9.999874e+01	0	0
3970938	2.554290e+00	-1.358767e+02	-6.683741e+01	0	0
3972891	2.555000e+00	-1.231424e+02	-2.320963e+01	0	0
3974844	2.555000e+00	-1.425229e+02	7.195180e-01	0	0
3976797	2.555000e+00	-1.535008e+02	-9.261208e+00	0	0
3978750	2.555291e+00	-1.138711e+02	2.011136e+01	0	0
3980703	2.556000e+00	-1.431084e+02	9.036015e+01	0	0
3982656	2.556000e+00	-1.725190e+02	3.555842e+01	0	0
3984609	2.556000e+00	-1.022225e+02	-2.272173e+00	0	0
3986563	2.556000e+00	-7.886019e+01	-2.558581e+01	0	0
3988516	2.556291e+00	-1.033684e+02	-9.536239e+01	0	0
3990469	2.557000e+00	-7.696870e+01	-6.881102e+01	0	0
3992422	2.557000e+00	-1.348161e+02	-4.458177e+01	0	0
3994375	2.557000e+00	-1.988215e+02	3.788755e+00	0	0
3996328	2.557292e+00	-1.672014e+02	-9.608169e+00	0	0
3998281	2.558000e+00	-1.675794e+02	1.754821e+01	0	0
4000234	2.558000e+00	-1.208351e+02	9.920603e+01	0	0
4002188	2.558000e+00	-1.336840e+02	6.401901e+01	0	0
4004141	2.558000e+00	-1.217451e+02	-1.274367e+01	0	0
4006094	2.558292e+00	-8.617557e+01	-4.431193e-02	0	0
4008047	2.559000e+00	-1.077184e+02	-4.473244e+01	0	0
4010000	2.559000e+00	-9.931436e+01	-1.025588e+02	0	0
4011953	2.559000e+00	-1.036428e+02	-4.429702e+01	0	0
4013906	2.559293e+00	-1.170018e+02	1.389481e+00	0	0
4015859	2.560000e+00	-9.191082e+01	-3.519124e+00	0	0
4017813	2.560000e+00	-1.179613e+02	-7.054731e+00	0	0
4019766	2.560000e+00	-1.166205e+02	3.858531e+01	0	0
4021719	2.560000e+00	-1.341280e+02	7.890179e+01	0	0
4023672	2.560293e+00	-1.186256e+02	-1.781972e+01	0	0
4025625	2.561000e+00	-1.363102e+02	7.001370e+00	0	0
4027578	2.561000e+00	-1.275166e+02	-3.306200e+01	0	0
4029531	2.561000e+00	-9.857599e+01	-9.824744e+01	0	0
4031484	2.561000e+00	-8.309651e+01	-2.710685e+01	0	0
4033438	2.561294e+00	-1.008523e+02	-8.050634e+00	0	0
4035391	2.562000e+00	-1.408174e+02	-1.294082e+00	0	0
4037344	2.562000e+00	-7.924225e+01	-1.004831e+01	0	0
4039297	2.562000e+00	-8.287322e+01	2.301483e+01	0	0
4041250	2.562294e+00	-7.867214e+01	8.741072e+01	0	0
4043203	2.563000e+00	-1.318369e+02	1.777947e+01	0	0
4045156	2.563000e+00	-1.492498e+02	-4.956507e-02	0	0
4047109	2.563000e+00	-1.081578e+02	-2.635927e+01	0	0
4049063	2.563000e+00	-1.091241e+02	-1.011222e+02	0	0
4051016	2.563295e+00	-8.646939e+01	-6.608060e+01	0	0
4052969	2.564000e+00	-8.667018e+01	-2.155470e+01	0	0
4054922	2.564000e+00	-4.728793e+01	4.055616e-01	0	0
4056875	2.564000e+00	-3.801134e+01	-8.948221e+00	0	0
4058828	2.564295e+00	-1.065481e+02	2.004126e+01	0	0
4060781	2.565000e+00	-1.347644e+02	9.636433e+01	0	0
4062734	2.565000e+00	-1.124878e+02	4.688707e+01	0	0
4064688	2.565000e+00	-1.264201e+02	-4.025777e+00	0	0
4066641	2.565000e+00	-1.165191e+02	-2.719806e+01	0	0
4068594	2.565000e+00	-1.284950e+02	-9.813137e+01	0	0
4070547	2.565296e+00	-1.300755e+02	-5.771918e+01	0	0
4072500	2.566000e+00	-9.567740e+01	-3.043633e+01	0	0
4074453	2.566000e+00	-6.631790e+01	1.163773e+00	0	0
4076406	2.566296e+00	-7.751334e+01	-1.024850e+01	0	0
4078359	2.567000e+00	-1.264001e+02	1.852363e+01	0	0
4080313	2.567000e+00	-8.573760e+01	1.052894e+02	0	0
4082266	2.567000e+00	-8.754122e+01	6.638901e+01	0	0
4084219	2.567000e+00	-7.649395e+01	-1.635689e+01	0	0
4086172	2.567297e+00	-5.275460e+01	5.360548e+00	0	0
4088125	2.568000e+00	-7.198157e+01	-3.615277e+01	0	0
4090078	2.568000e+00	-9.919844e+01	-1.041123e+02	0	0
4092031	2.568000e+00	-9.920218e+01	-2.759743e+01	0	0
4093984	2.568000e+00	-9.632246e+01	-1.814478e+00	0	0
4095938	2.568298e+00	-1.113244e+02	-2.877252e+00	0	0
4097891	2.569000e+00	-1.145829e+02	-8.698596e+00	0	0
4099844	2.569000e+00	-9.981401e+01	3.704145e+01	0	0
4101797	2.569000e+00	-1.118761e+02	8.063464e+01	0	0
4103750	2.569000e+00	-8.915723e+01	-1.385867e+01	0	0
4105703	2.569000e+00	-7.541391e+01	5.424785e+00	0	0
4107656	2.569298e+00	-7.322400e+01	-3.962566e+01	0	0
4109609	2.570000e+00	-5.501523e+01	-1.012370e+02	0	0
4111563	2.570000e+00	-1.086028e+02	-4.004909e+01	0	0
4113516	2.570299e+00	-1.243998e+02	3.602414e-01	0	0
4115469	2.571000e+00	-1.135744e+02	-2.844338e+00	0	0
4117422	2.571000e+00	-1.145152e+02	-1.058247e+01	0	0
4119375	2.571000e+00	-1.194814e+02	2.253225e+01	0	0
4121328	2.571000e+00	-9.631901e+01	7.823867e+01	0	0
4123281	2.571000e+00	-9.269194e+01	4.204671e+00	0	0
4125234	2.571299e+00	-8.972313e+01	3.132153e+00	0	0
4127188	2.572000e+00	-7.643191e+01	-2.689142e+01	0	0
4129141	2.572000e+00	-7.389766e+01	-9.550313e+01	0	0
4131094	2.572300e+00	-1.059334e+02	-6.180496e+01	0	0
4133047	2.573000e+00	-7.023246e+01	-2.929700e+01	0	0
4135000	2.573000e+00	-1.003113e+02	1.581094e+00	0	0
4136953	2.573000e+00	-1.182038e+02	-1.085819e+01	0	0
4138906	2.573000e+00	-8.672069e+01	2.232911e+01	0	0
4140859	2.573300e+00	-1.314003e+02	9.352080e+01	0	0
4142813	2.574000e+00	-7.426256e+01	3.166526e+01	0	0
4144766	2.574000e+00	-5.528408e+01	-1.765850e+00	0	0
4146719	2.574000e+00	-1.409734e+01	-2.949958e+01	0	0
4148672	2.574000e+00	4.969140e+01	-1.033329e+02	0	0
4150625	2.574301e+00	7.807787e+01	-6.945293e+01	0	0
4152578	2.575000e+00	4.283084e+01	-4.207246e+01	0	0
4154531	2.575000e+00	2.897781e+01	3.141204e+00	0	0
4156484	2.575000e+00	9.300737e+00	-1.098330e+01	0	0
4158438	2.575301e+00	2.069980e+01	2.109169e+01	0	0
4160391	2.576000e+00	4.691062e+01	1.070510e+02	0	0
4162344	2.576000e+00	7.147742e+01	6.067990e+01	0	0
4164297	2.576000e+00	9.500679e+01	-1.163231e+01	0	0
4166250	2.576301e+00	1.068273e+02	-5.709090e+00	0	0
4168203	2.577000e+00	1.239867e+02	-5.969316e+01	0	0
4170156	2.577000e+00	1.228670e+02	-9.511982e+01	0	0
4172109	2.577000e+00	1.099358e+02	-3.496118e+01	0	0
4174063	2.577000e+00	1.093955e+02	-1.080638e+00	0	0
4176016	2.577000e+00	1.446936e+02	-9.195286e+00	0	0
4177969	2.577302e+00	1.660846e+02	4.822389e+00	0	0
4179922	2.578000e+00	1.470571e+02	7.011778e+01	0	0
4181875	2.578000e+00	1.011557e+02	6.391002e+01	0	0
4183828	2.578000e+00	1.539937e+02	-1.860088e+01	0	0
4185781	2.578000e+00	1.683991e+02	1.797644e+00	0	0
4187734	2.578303e+00	2.046301e+02	-3.839361e+01	0	0
4189688	2.579000e+00	1.986369e+02	-9.562115e+01	0	0
4191641	2.579000e+00	1.776584e+02	-2.498941e+01	0	0
4193594	2.579303e+00	1.522543e+02	-5.538791e+00	0	0
4195547	2.580000e+00	1.817950e+02	-5.032506e+00	0	0
4197500	2.580000e+00	2.534917e+02	-1.343699e+01	0	0
4199453	2.580000e+00	2.196744e+02	2.309135e+01	0	0
4201406	2.580000e+00	2.071398e+02	8.023804e+01	0	0
4203359	2.580000e+00	2.050166e+02	8.619321e-01	0	0
4205313	2.580000e+00	2.007699e+02	2.145201e+00	0	0
4207266	2.580304e+00	1.773724e+02	-3.141565e+01	0	0
4209219	2.581000e+00	4.746971e+01	-9.633736e+01	0	0
4211172	2.581000e+00	4.086239e+01	-4.081937e+01	0	0
4213125	2.581000e+00	6.381399e+01	-1.744234e+01	0	0
4215078	2.581304e+00	-6.876381e-02	-2.457865e-01	0	0
4217031	2.582000e+00	7.862087e+00	-1.048266e+01	0	0
4218984	2.582000e+00	-1.625955e+00	2.263246e+01	0	0
4220938	2.582000e+00	-1.741798e+01	8.765313e+01	0	0
4222891	2.582000e+00	2.132019e+01	2.397057e+01	0	0
4224844	2.582000e+00	4.710317e+01	-3.238484e-01	0	0
4226797	2.582305e+00	1.039175e+01	-2.570480e+01	0	0
4228750	2.583000e+00	-5.233750e+01	-1.011289e+02	0	0
4230703	2.583000e+00	-1.236402e+02	-7.657515e+01	0	0
4232656	2.583305e+00	-7.295934e+01	-3.298439e+01	0	0
4234609	2.584000e+00	-7.571870e+01	4.471285e+00	0	0
4236563	2.584000e+00	-1.035239e+02	-7.622094e+00	0	0
4238516	2.584000e+00	-1.091329e+02	2.404467e+01	0	0
4240469	2.584000e+00	-1.069633e+02	1.052971e+02	0	0
4242422	2.584000e+00	-6.848911e+01	5.667184e+01	0	0
4244375	2.584000e+00	-1.359608e+02	-1.031838e+01	0	0
4246328	2.584306e+00	-1.642411e+02	-6.076659e+00	0	0
4248281	2.585000e+00	-1.068204e+02	-6.108906e+01	0	0
4250234	2.585000e+00	-1.086756e+02	-1.075609e+02	0	0
4252188	2.585307e+00	-1.315000e+02	-5.885912e+01	0	0
4254141	2.586000e+00	-8.969863e+01	8.252244e+00	0	0
4256094	2.586000e+00	-8.541518e+01	4.334634e-01	0	0
4258047	2.586000e+00	-1.413236e+02	6.912563e+00	0	0
4260000	2.586000e+00	-1.359796e+02	7.020226e+01	0	0
4261953	2.586000e+00	-1.037552e+02	9.185167e+01	0	0
4263906	2.586000e+00	-7.291613e+01	-1.644329e+01	0	0
4265859	2.586307e+00	-3.119507e+00	8.123419e+00	0	0
4267813	2.587000e+00	-9.461935e+01	-3.927080e+01	0	0
4269766	2.587000e+00	-1.675980e+02	-1.076664e+02	0	0
4271719	2.587000e+00	-2.055536e+02	-2.378333e+01	0	0
4273672	2.587000e+00	-1.953495e+02	-1.172552e+01	0	0
4275625	2.587308e+00	-1.624661e+02	-1.701542e+01	0	0
4277578	2.588000e+00	-1.924773e+02	-7.732685e+00	0	0
4279531	2.588000e+00	-1.784478e+02	5.653057e+01	0	0
4281484	2.588000e+00	-1.610001e+02	7.236998e+01	0	0
4283438	2.588000e+00	-1.218971e+02	-8.152771e+00	0	0
4285391	2.588000e+00	-1.433128e+02	-1.228307e+00	0	0
4287344	2.588309e+00	-1.598578e+02	-3.458334e+01	0	0
4289297	2.589000e+00	-1.378390e+02	-1.071863e+02	0	0
4291250	2.589000e+00	-9.108456e+01	-5.548108e+01	0	0
4293203	2.589000e+00	-6.358858e+01	-7.491022e+00	0	0
4295156	2.589309e+00	-5.926838e+01	-2.099954e+00	0	0
4297109	2.590000e+00	-8.863667e+01	-8.077906e+00	0	0
4299063	2.590000e+00	-2.168338e+02	2.529863e+01	0	0
4301016	2.590000e+00	-2.502262e+02	9.484321e+01	0	0
4302969	2.590000e+00	-2.041980e+02	3.515418e+01	0	0
4304922	2.590000e+00	-2.273684e+02	1.602667e+00	0	0
4306875	2.590310e+00	-1.783084e+02	-2.398960e+01	0	0
4308828	2.591000e+00	-1.166453e+02	-1.012078e+02	0	0
4310781	2.591000e+00	-4.587421e+01	-7.638781e+01	0	0
4312734	2.591000e+00	9.631347e+00	-3.371149e+01	0	0
4314688	2.591000e+00	7.049597e+01	2.196058e+00	0	0
4316641	2.591000e+00	1.637233e+02	-1.080371e+01	0	0
4318594	2.591310e+00	3.555454e+02	2.489872e+01	0	0
4320547	2.592000e+00	6.047912e+02	1.038794e+02	0	0
4322500	2.592000e+00	8.842046e+02	4.607543e+01	0	0
4324453	2.592000e+00	1.111793e+03	-6.680482e+00	0	0
4326406	2.592000e+00	1.395128e+03	-1.280593e+01	0	0
4328359	2.592311e+00	1.606276e+03	-7.586347e+01	0	0
4330313	2.593000e+00	1.840592e+03	-1.056641e+02	0	0
4332266	2.593000e+00	1.862276e+03	-5.735946e+01	0	0
4334219	2.593000e+00	1.712665e+03	7.478226e+00	0	0
4336172	2.593000e+00	1.454422e+03	-2.627265e+00	0	0
4338125	2.593000e+00	1.129452e+03	1.426901e+00	0	0
4340078	2.593311e+00	9.628337e+02	6.097833e+01	0	0
4342031	2.594000e+00	7.423542e+02	8.880301e+01	0	0
4343984	2.594000e+00	5.593326e+02	-1.433310e+01	0	0
4345938	2.594000e+00	2.485323e+02	6.879654e+00	0	0
4347891	2.594000e+00	-6.726038e+01	-4.124113e+01	0	0
4349844	2.594312e+00	-2.157926e+02	-1.065369e+02	0	0
4351797	2.595000e+00	-2.568351e+02	-3.468546e+01	0	0
4353750	2.595000e+00	-3.152614e+02	-6.079115e+00	0	0
4355703	2.595000e+00	-2.730053e+02	-1.395686e+01	0	0
4357656	2.595000e+00	-3.382901e+02	-1.457072e+00	0	0
4359609	2.595000e+00	-2.636339e+02	5.931802e+01	0	0
4361563	2.595313e+00	-1.481318e+02	7.316018e+01	0	0
4363516	2.596000e+00	-1.000261e+02	3.776839e+00	0	0
4365469	2.596000e+00	-9.979034e+01	2.360980e+00	0	0
4367422	2.596000e+00	-4.812733e+01	-2.670417e+01	0	0
4369375	2.596313e+00	-4.347265e+01	-9.484177e+01	0	0
4371328	2.597000e+00	-1.760913e+01	-5.820960e+01	0	0
4373281	2.597000e+00	2.322462e+01	-2.000905e+01	0	0
4375234	2.597000e+00	-2.941231e+01	1.832146e+00	0	0
4377188	2.597314e+00	-1.105850e+02	-8.762302e+00	0	0
4379141	2.598000e+00	-1.605195e+02	2.659745e+01	0	0
4381094	2.598000e+00	-4.089436e+01	8.248531e+01	0	0
4383047	2.598000e+00	-5.237900e+01	1.651957e+01	0	0
4385000	2.598000e+00	-1.190094e+02	5.931489e+00	0	0
4386953	2.598000e+00	-1.187478e+02	-2.270459e+01	0	0
4388906	2.598314e+00	-1.128860e+02	-9.177442e+01	0	0
4390859	2.599000e+00	-9.486867e+01	-6.488739e+01	0	0
4392813	2.599000e+00	-7.493002e+01	-2.886302e+01	0	0
4394766	2.599000e+00	-1.139668e+02	5.431859e+00	0	0
4396719	2.599000e+00	-9.857836e+01	-8.108969e+00	0	0
4398672	2.599315e+00	-7.248082e+01	2.352972e+01	0	0
4400625	2.600000e+00	-4.084338e+01	1.016809e+02	0	0
4402578	2.600000e+00	-1.121260e+01	5.176006e+01	0	0
4404531	2.600000e+00	-5.458461e+01	-5.785067e+00	0	0
4406484	2.600000e+00	-6.086076e+01	-1.564675e+01	0	0
4408438	2.600000e+00	-6.826145e+01	-8.604453e+01	0	0
4410391	2.600316e+00	-9.791808e+01	-9.007174e+01	0	0
4412344	2.601000e+00	-8.498569e+01	-3.168419e+01	0	0
4414297	2.601000e+00	-9.614725e+01	2.217074e+00	0	0
