time	gsr	ecg	emg_trapezius	emg_corrugator	emg_zygomaticus
1016	2.159000e+00	-8.476369e+01	-3.632072e-01	0	0
2969	2.159000e+00	-8.552108e+01	-3.635869e-01	0	0
4922	2.159000e+00	-9.007503e+01	-3.618988e-01	0	0
6875	2.159000e+00	-8.687595e+01	-3.679272e-01	0	0
8828	2.159000e+00	-8.743598e+01	-3.451564e-01	0	0
10781	2.159000e+00	-7.552961e+01	-4.298670e-01	0	0
12734	2.159000e+00	-7.466925e+01	-1.134457e-01	0	0
14688	2.159000e+00	-9.017784e+01	-1.584977e+00	0	0
16641	2.159000e+00	-9.087680e+01	-1.417771e+00	0	0
18594	2.159000e+00	-8.161628e+01	-1.145005e-01	0	0
20547	2.159000e+00	-7.473096e+01	-4.911422e-01	0	0
22500	2.159000e+00	-6.604593e+01	-9.725961e-02	0	0
24453	2.159000e+00	-5.745891e+01	-1.295822e+00	0	0
26406	2.159000e+00	-6.111758e+01	4.190035e+00	0	0
28359	2.159000e+00	-6.108228e+01	3.618423e+00	0	0
30313	2.159000e+00	-6.103465e+01	-1.452483e+00	0	0
32266	2.159000e+00	-5.459232e+01	7.290426e-01	0	0
34219	2.159000e+00	-4.142684e+01	-4.642078e+00	0	0
36172	2.159000e+00	-5.025863e+01	-3.955829e+00	0	0
38125	2.159000e+00	-6.462112e+01	4.259556e-01	0	0
40078	2.159000e+00	-7.627684e+01	-5.733187e-01	0	0
42031	2.159000e+00	-8.436101e+01	-3.054963e-01	0	0
43984	2.159000e+00	-8.293430e+01	-3.771826e-01	0	0
45938	2.159000e+00	-7.332942e+01	-3.579032e-01	0	0
47891	2.159000e+00	-4.935921e+01	-3.629911e-01	0	0
49844	2.159000e+00	-1.853937e+01	-3.615529e-01	0	0
51797	2.159000e+00	-5.422627e+00	-3.618633e-01	0	0
53750	2.159000e+00	-5.827937e+00	-3.617051e-01	0	0
55703	2.159000e+00	-9.822240e+00	-3.616723e-01	0	0
57656	2.159000e+00	-1.761337e+01	-3.616059e-01	0	0
59609	2.159000e+00	-1.803920e+01	-3.615484e-01	0	0
61563	2.159000e+00	-2.017583e+01	-3.614883e-01	0	0
63516	2.159000e+00	-2.288683e+01	-3.614289e-01	0	0
65469	2.159000e+00	-1.139745e+01	-3.613692e-01	0	0
67422	2.159000e+00	3.053920e+00	-3.613096e-01	0	0
69375	2.159000e+00	1.251548e+01	-3.612498e-01	0	0
71328	2.159000e+00	2.752383e+01	-3.611901e-01	0	0
73281	2.159000e+00	2.197485e+01	-3.611296e-01	0	0
75234	2.158463e+00	1.843907e+01	-3.610716e-01	0	0
77188	2.158538e+00	7.064005e+00	-3.610042e-01	0	0
79141	2.158462e+00	-1.085740e+01	-3.609713e-01	0	0
81094	2.158538e+00	1.175934e+00	-3.608097e-01	0	0
83047	2.158462e+00	-5.805349e-01	-3.611282e-01	0	0
85000	2.158000e+00	-3.053328e+00	-3.596544e-01	0	0
86953	2.158000e+00	2.494130e-01	-3.648692e-01	0	0
88906	2.158000e+00	8.069420e+00	-3.451210e-01	0	0
90859	2.158000e+00	2.681713e+01	-4.185372e-01	0	0
92813	2.158000e+00	2.861799e+01	-1.441655e-01	0	0
94766	2.158000e+00	1.733157e+01	-1.423655e+00	0	0
96719	2.158000e+00	2.834724e+01	-1.264781e+00	0	0
98672	2.158000e+00	4.258013e+01	-1.482688e-01	0	0
100625	2.158000e+00	2.911759e+01	-4.652108e-01	0	0
102578	2.158000e+00	3.062919e+01	-1.525859e-01	0	0
104531	2.158000e+00	4.419229e+01	-1.085796e+00	0	0
106484	2.158000e+00	5.880943e+01	3.191587e+00	0	0
108438	2.158000e+00	7.228381e+01	2.702160e+00	0	0
110391	2.158000e+00	9.004271e+01	-1.213084e+00	0	0
112344	2.158000e+00	1.000923e+02	5.272861e-01	0	0
114297	2.158000e+00	9.434960e+01	-3.896003e+00	0	0
116250	2.158000e+00	9.372191e+01	-3.292189e+00	0	0
118203	2.158000e+00	9.341796e+01	2.894202e-01	0	0
120156	2.158000e+00	9.350645e+01	-5.486756e-01	0	0
122109	2.158000e+00	9.291958e+01	-2.527339e-01	0	0
124063	2.158000e+00	1.185192e+02	-5.981401e-01	0	0
126016	2.158000e+00	1.470386e+02	7.566815e-01	0	0
127969	2.158000e+00	1.647966e+02	5.762248e-01	0	0
129922	2.158000e+00	1.786199e+02	-5.654498e-01	0	0
131875	2.158000e+00	1.876209e+02	-3.040825e-01	0	0
133828	2.158000e+00	1.909144e+02	-3.740353e-01	0	0
135781	2.158000e+00	1.898802e+02	-3.552134e-01	0	0
137734	2.158000e+00	1.963847e+02	-3.601779e-01	0	0
139688	2.158000e+00	1.918335e+02	-3.587691e-01	0	0
141641	2.158000e+00	1.968430e+02	-3.590675e-01	0	0
143594	2.158000e+00	2.085290e+02	-3.589086e-01	0	0
145547	2.158000e+00	2.240853e+02	-3.588722e-01	0	0
147500	2.158000e+00	2.370552e+02	-3.588028e-01	0	0
149453	2.158000e+00	2.395403e+02	-3.587423e-01	0	0
151406	2.158000e+00	2.608266e+02	-3.586792e-01	0	0
153359	2.158000e+00	2.767910e+02	-3.586168e-01	0	0
155313	2.158000e+00	2.963355e+02	-3.585541e-01	0	0
157266	2.158000e+00	3.194561e+02	-3.584914e-01	0	0
159219	2.158000e+00	3.269126e+02	-3.584287e-01	0	0
161172	2.158000e+00	3.454005e+02	-3.583659e-01	0	0
163125	2.158000e+00	3.602322e+02	-3.583028e-01	0	0
165078	2.158000e+00	3.757740e+02	-3.582408e-01	0	0
167031	2.158000e+00	4.020822e+02	-3.581743e-01	0	0
168984	2.158000e+00	4.099673e+02	-3.581244e-01	0	0
170938	2.158000e+00	4.130206e+02	-3.580121e-01	0	0
172891	2.158000e+00	4.299110e+02	-3.581322e-01	0	0
174844	2.158000e+00	4.347826e+02	-3.573850e-01	0	0
176797	2.158000e+00	4.367671e+02	-3.598744e-01	0	0
178750	2.157458e+00	4.520706e+02	-3.502840e-01	0	0
180703	2.157542e+00	4.605810e+02	-3.857767e-01	0	0
182656	2.157458e+00	4.736328e+02	-2.530143e-01	0	0
184609	2.157000e+00	4.849553e+02	-7.481963e-01	0	0
186563	2.157542e+00	5.004043e+02	1.575130e+00	0	0
188516	2.158000e+00	5.212686e+02	1.315481e+00	0	0
190469	2.158000e+00	5.314147e+02	-9.123476e-01	0	0
192422	2.157458e+00	5.316991e+02	4.744591e-01	0	0
194375	2.157000e+00	5.331439e+02	-4.015157e+00	0	0
196328	2.157542e+00	5.388416e+02	-3.376454e+00	0	0
198281	2.157458e+00	5.454881e+02	3.217301e-01	0	0
200234	2.157542e+00	5.473898e+02	-5.850610e-01	0	0
202188	2.157457e+00	5.290208e+02	-1.240158e-01	0	0
204141	2.157000e+00	5.159475e+02	-1.061209e+00	0	0
206094	2.157000e+00	5.098388e+02	3.063722e+00	0	0
208047	2.157000e+00	5.075942e+02	2.516268e+00	0	0
210000	2.157000e+00	4.985873e+02	-1.051417e+00	0	0
211953	2.157000e+00	4.764253e+02	1.219383e-01	0	0
213906	2.157000e+00	4.412194e+02	-1.921297e+00	0	0
215859	2.157000e+00	4.048748e+02	-1.604365e+00	0	0
217813	2.157000e+00	3.720062e+02	-8.161287e-02	0	0
219766	2.157000e+00	3.347932e+02	-4.301127e-01	0	0
221719	2.157000e+00	3.039059e+02	-3.366530e-01	0	0
223672	2.157000e+00	2.692022e+02	-3.616128e-01	0	0
225625	2.157000e+00	2.325281e+02	-3.548430e-01	0	0
227578	2.157000e+00	2.139506e+02	-3.565748e-01	0	0
229531	2.157000e+00	2.062466e+02	-3.560286e-01	0	0
231484	2.157000e+00	1.654152e+02	-3.560927e-01	0	0
233438	2.157000e+00	1.397960e+02	-3.559931e-01	0	0
235391	2.157000e+00	1.296559e+02	-3.559374e-01	0	0
237344	2.157000e+00	9.131043e+01	-3.558699e-01	0	0
239297	2.157000e+00	6.662128e+01	-3.558052e-01	0	0
241250	2.157000e+00	4.652512e+01	-3.557407e-01	0	0
243203	2.157000e+00	2.506470e+01	-3.556726e-01	0	0
245156	2.157000e+00	1.315033e+01	-3.556183e-01	0	0
247109	2.157000e+00	1.275001e+01	-3.555121e-01	0	0
249063	2.157000e+00	1.327395e+01	-3.555992e-01	0	0
251016	2.157000e+00	3.724786e-01	-3.549646e-01	0	0
252969	2.157000e+00	-5.145117e+00	-3.570233e-01	0	0
254922	2.157000e+00	-2.647897e+01	-3.490302e-01	0	0
256875	2.157000e+00	-5.035817e+01	-3.915497e-01	0	0
258828	2.157000e+00	-5.534156e+01	-4.937398e-01	0	0
260781	2.157000e+00	-5.543253e+01	-6.615188e-01	0	0
262734	2.157000e+00	-6.481448e+01	-5.640924e-01	0	0
264688	2.157000e+00	-6.823312e+01	-1.320064e+00	0	0
266641	2.157000e+00	-5.869243e+01	1.897253e+00	0	0
268594	2.157000e+00	-6.795128e+01	1.356294e+00	0	0
270547	2.157000e+00	-6.871465e+01	-1.670105e+00	0	0
272500	2.157000e+00	-6.287071e+01	2.452337e-01	0	0
274453	2.157000e+00	-7.049250e+01	-4.749524e+00	0	0
276406	2.157000e+00	-6.662289e+01	-3.818040e+00	0	0
278359	2.157000e+00	-6.856465e+01	4.267336e-01	0	0
280313	2.157000e+00	-8.022995e+01	-6.213294e-01	0	0
282266	2.157000e+00	-6.287740e+01	-6.733341e-02	0	0
284219	2.157000e+00	-6.840636e+01	-1.235510e+00	0	0
286172	2.157000e+00	-8.346674e+01	3.948990e+00	0	0
288125	2.157000e+00	-8.394671e+01	3.212563e+00	0	0
290078	2.157000e+00	-8.292519e+01	-1.290912e+00	0	0
292031	2.157000e+00	-7.195069e+01	4.368610e-01	0	0
293984	2.157000e+00	-7.429883e+01	-3.293579e+00	0	0
295938	2.157000e+00	-7.535009e+01	-2.693771e+00	0	0
297891	2.157000e+00	-6.506483e+01	1.635433e-01	0	0
299844	2.157000e+00	-8.062316e+01	-4.900397e-01	0	0
301797	2.157000e+00	-9.992124e+01	-3.259389e-01	0	0
303750	2.156453e+00	-9.958923e+01	-3.085037e-01	0	0
305703	2.156000e+00	-1.026196e+02	-1.493993e-01	0	0
307656	2.156000e+00	-9.053656e+01	-4.447986e-02	0	0
309609	2.156000e+00	-8.658027e+01	1.163416e-03	0	0
311563	2.156000e+00	-9.813115e+01	-1.870832e-02	0	0
313516	2.156000e+00	-9.262257e+01	-1.014005e-01	0	0
315469	2.156000e+00	-9.586537e+01	-2.398066e-01	0	0
317422	2.156000e+00	-1.047798e+02	-3.396758e-01	0	0
319375	2.156000e+00	-1.062631e+02	-3.553497e-01	0	0
321328	2.156000e+00	-1.134133e+02	-3.524196e-01	0	0
323281	2.156000e+00	-1.180403e+02	-3.531194e-01	0	0
325234	2.156000e+00	-1.164650e+02	-3.528466e-01	0	0
327188	2.156000e+00	-1.110151e+02	-3.528343e-01	0	0
329141	2.156000e+00	-1.009879e+02	-3.527521e-01	0	0
331094	2.156000e+00	-7.944013e+01	-3.526887e-01	0	0
333047	2.156000e+00	-6.389535e+01	-3.526198e-01	0	0
335000	2.156000e+00	-6.655575e+01	-3.525541e-01	0	0
336953	2.156000e+00	-7.498826e+01	-3.524808e-01	0	0
338906	2.156000e+00	-7.533795e+01	-3.524342e-01	0	0
340859	2.156000e+00	-8.244567e+01	-3.522881e-01	0	0
342813	2.156000e+00	-1.010946e+02	-3.525132e-01	0	0
344766	2.156000e+00	-1.054742e+02	-3.513527e-01	0	0
346719	2.156000e+00	-1.060214e+02	-3.553632e-01	0	0
348672	2.156000e+00	-9.981613e+01	-3.400747e-01	0	0
350625	2.156000e+00	-8.437978e+01	-3.968117e-01	0	0
352578	2.156000e+00	-7.782580e+01	-1.847425e-01	0	0
354531	2.156000e+00	-8.055272e+01	-1.183496e+00	0	0
356484	2.156000e+00	-8.794216e+01	-1.026464e+00	0	0
358438	2.156000e+00	-9.242409e+01	-1.957351e-01	0	0
360391	2.156000e+00	-9.669034e+01	-4.166878e-01	0	0
362344	2.156000e+00	-9.955110e+01	-2.475343e-01	0	0
364297	2.156000e+00	-1.050067e+02	-7.027963e-01	0	0
366250	2.156000e+00	-1.061931e+02	1.384555e+00	0	0
368203	2.156000e+00	-1.077968e+02	1.068225e+00	0	0
370156	2.156000e+00	-9.822337e+01	-7.256664e-01	0	0
372109	2.156000e+00	-8.740947e+01	-3.394526e-02	0	0
374063	2.156000e+00	-8.636782e+01	-1.538274e+00	0	0
376016	2.156000e+00	-8.070566e+01	-1.282062e+00	0	0
377969	2.156000e+00	-8.760442e+01	-1.443792e-01	0	0
379922	2.156000e+00	-9.787289e+01	-4.063650e-01	0	0
381875	2.156000e+00	-1.034310e+02	-3.360811e-01	0	0
383828	2.156000e+00	-8.716462e+01	-3.548261e-01	0	0
385781	2.156000e+00	-7.685094e+01	-3.497166e-01	0	0
387734	2.156000e+00	-8.630921e+01	-3.509986e-01	0	0
389688	2.156000e+00	-8.152597e+01	-3.505680e-01	0	0
391641	2.156000e+00	-8.366367e+01	-3.505961e-01	0	0
393594	2.156000e+00	-9.487265e+01	-3.505013e-01	0	0
395547	2.156000e+00	-9.010432e+01	-3.504395e-01	0	0
397500	2.156000e+00	-8.700948e+01	-3.503687e-01	0	0
399453	2.156000e+00	-9.811829e+01	-3.503003e-01	0	0
401406	2.156000e+00	-9.411873e+01	-3.502313e-01	0	0
403359	2.156000e+00	-9.653177e+01	-3.501620e-01	0	0
405313	2.156000e+00	-1.025768e+02	-3.500940e-01	0	0
407266	2.156000e+00	-8.880109e+01	-3.500210e-01	0	0
409219	2.156000e+00	-8.428823e+01	-3.499666e-01	0	0
411172	2.156000e+00	-9.425426e+01	-3.498426e-01	0	0
413125	2.155449e+00	-9.796554e+01	-3.499782e-01	0	0
415078	2.155552e+00	-9.063099e+01	-3.491445e-01	0	0
417031	2.156000e+00	-8.027921e+01	-3.519284e-01	0	0
418984	2.156000e+00	-8.776849e+01	-3.412107e-01	0	0
420938	2.155448e+00	-9.251221e+01	-3.808931e-01	0	0
422891	2.155000e+00	-8.945451e+01	-2.324555e-01	0	0
424844	2.155000e+00	-8.461535e+01	-7.861103e-01	0	0
426797	2.155000e+00	-7.728037e+01	1.836825e+00	0	0
428750	2.155000e+00	-7.870810e+01	1.476888e+00	0	0
430703	2.155000e+00	-7.765102e+01	-9.953483e-01	0	0
432656	2.155000e+00	-7.861616e+01	7.063330e-01	0	0
434609	2.155000e+00	-8.262331e+01	-5.123142e+00	0	0
436563	2.155000e+00	-8.199959e+01	-4.126974e+00	0	0
438516	2.155000e+00	-7.313329e+01	5.123174e-01	0	0
440469	2.155000e+00	-7.685914e+01	-6.527759e-01	0	0
442422	2.155000e+00	-8.466647e+01	5.747010e-03	0	0
444375	2.155000e+00	-8.787965e+01	-1.462875e+00	0	0
446328	2.155000e+00	-7.931603e+01	5.147083e+00	0	0
448281	2.155000e+00	-7.152334e+01	4.093737e+00	0	0
450234	2.155000e+00	-6.623889e+01	-1.562364e+00	0	0
452188	2.155000e+00	-6.898257e+01	8.025870e-01	0	0
454141	2.155000e+00	-7.794443e+01	-4.867093e+00	0	0
456094	2.155000e+00	-7.974775e+01	-3.857611e+00	0	0
458047	2.155000e+00	-8.244862e+01	4.332468e-01	0	0
460000	2.155000e+00	-8.891427e+01	-5.575312e-01	0	0
461953	2.155000e+00	-8.847714e+01	-2.919717e-01	0	0
463906	2.155000e+00	-8.541944e+01	-3.630372e-01	0	0
465859	2.155000e+00	-7.773283e+01	-3.439069e-01	0	0
467813	2.155000e+00	-7.625922e+01	-3.489428e-01	0	0
469766	2.155000e+00	-7.689297e+01	-3.475053e-01	0	0
471719	2.155000e+00	-6.832062e+01	-3.478014e-01	0	0
473672	2.155000e+00	-7.944105e+01	-3.476330e-01	0	0
475625	2.155000e+00	-7.893769e+01	-3.475889e-01	0	0
477578	2.155000e+00	-7.230536e+01	-3.475116e-01	0	0
479531	2.155000e+00	-9.210032e+01	-3.474431e-01	0	0
481484	2.155000e+00	-1.009666e+02	-3.473721e-01	0	0
483438	2.155000e+00	-9.600997e+01	-3.473018e-01	0	0
485391	2.155000e+00	-9.586685e+01	-3.472313e-01	0	0
487344	2.155000e+00	-8.830774e+01	-3.471608e-01	0	0
489297	2.155000e+00	-9.106407e+01	-3.470902e-01	0	0
491250	2.155000e+00	-8.133373e+01	-3.470197e-01	0	0
493203	2.155000e+00	-7.408039e+01	-3.469488e-01	0	0
495156	2.155000e+00	-9.077716e+01	-3.468793e-01	0	0
497109	2.155000e+00	-9.332315e+01	-3.468044e-01	0	0
499063	2.155000e+00	-9.002049e+01	-3.467496e-01	0	0
501016	2.155000e+00	-9.001938e+01	-3.466193e-01	0	0
502969	2.155000e+00	-9.144320e+01	-3.467708e-01	0	0
504922	2.155000e+00	-9.164809e+01	-3.458707e-01	0	0
506875	2.155000e+00	-8.950028e+01	-3.488951e-01	0	0
508828	2.155000e+00	-9.540184e+01	-3.372724e-01	0	0
510781	2.155000e+00	-1.038595e+02	-3.803143e-01	0	0
512734	2.155000e+00	-9.703303e+01	-2.193425e-01	0	0
514688	2.155000e+00	-8.594162e+01	-9.831567e-01	0	0
516641	2.155000e+00	-8.746185e+01	-8.504809e-01	0	0
518594	2.155000e+00	-8.712480e+01	-2.191819e-01	0	0
520547	2.155000e+00	-1.003709e+02	-4.321338e-01	0	0
522500	2.155000e+00	-1.175236e+02	-1.280222e-01	0	0
524453	2.155000e+00	-1.187815e+02	-1.131104e+00	0	0
526406	2.155000e+00	-1.217062e+02	3.587001e+00	0	0
528359	2.155000e+00	-1.194966e+02	2.791075e+00	0	0
530313	2.155000e+00	-9.891083e+01	-1.204921e+00	0	0
532266	2.154443e+00	-9.992422e+01	4.709066e-01	0	0
534219	2.154557e+00	-1.068709e+02	-3.564815e+00	0	0
536172	2.155000e+00	-1.023989e+02	-2.810324e+00	0	0
538125	2.155000e+00	-9.438117e+01	2.050960e-01	0	0
540078	2.154443e+00	-8.917908e+01	-4.927241e-01	0	0
542031	2.154000e+00	-9.845735e+01	-3.056587e-01	0	0
543984	2.154557e+00	-9.304537e+01	-3.556908e-01	0	0
545938	2.154443e+00	-8.633147e+01	-3.421971e-01	0	0
547891	2.154000e+00	-8.650909e+01	-3.457196e-01	0	0
549844	2.154000e+00	-7.874194e+01	-3.446852e-01	0	0
551797	2.154000e+00	-8.268827e+01	-3.448718e-01	0	0
553750	2.154000e+00	-9.606465e+01	-3.447312e-01	0	0
555703	2.154000e+00	-1.064663e+02	-3.446782e-01	0	0
557656	2.154000e+00	-9.967984e+01	-3.446017e-01	0	0
559609	2.154000e+00	-9.675073e+01	-3.445315e-01	0	0
561563	2.154000e+00	-1.051671e+02	-3.444595e-01	0	0
563516	2.154000e+00	-1.021845e+02	-3.443880e-01	0	0
565469	2.154000e+00	-9.876196e+01	-3.443164e-01	0	0
567422	2.154000e+00	-9.191246e+01	-3.442447e-01	0	0
569375	2.154000e+00	-9.589057e+01	-3.441730e-01	0	0
571328	2.154000e+00	-8.071531e+01	-3.441016e-01	0	0
573281	2.154000e+00	-6.958634e+01	-3.440287e-01	0	0
575234	2.154000e+00	-7.593316e+01	-3.439613e-01	0	0
577188	2.154000e+00	-7.644376e+01	-3.438734e-01	0	0
579141	2.154000e+00	-8.227609e+01	-3.438614e-01	0	0
581094	2.154000e+00	-8.433401e+01	-3.435665e-01	0	0
583047	2.154000e+00	-9.089250e+01	-3.443272e-01	0	0
585000	2.154000e+00	-1.115490e+02	-3.411484e-01	0	0
586953	2.154000e+00	-1.076508e+02	-3.526717e-01	0	0
588906	2.154000e+00	-9.768078e+01	-3.093256e-01	0	0
590859	2.154000e+00	-1.084307e+02	-4.707567e-01	0	0
592813	2.154000e+00	-1.034888e+02	1.322056e-01	0	0
594766	2.154000e+00	-1.048320e+02	-2.738031e+00	0	0
596719	2.154000e+00	-1.192422e+02	-2.200847e+00	0	0
598672	2.154000e+00	-1.166571e+02	9.169573e-02	0	0
600625	2.154000e+00	-1.132834e+02	-5.333935e-01	0	0
602578	2.154000e+00	-1.044542e+02	-1.328215e-01	0	0
604531	2.154000e+00	-9.617127e+01	-1.549280e+00	0	0
606484	2.154000e+00	-1.002829e+02	4.474311e+00	0	0
608438	2.154000e+00	-8.961161e+01	3.356906e+00	0	0
610391	2.154000e+00	-7.166996e+01	-1.711097e+00	0	0
612344	2.154000e+00	-6.431099e+01	4.795040e-01	0	0
614297	2.154000e+00	-5.851801e+01	-4.642883e+00	0	0
616250	2.154000e+00	-5.575083e+01	-3.514478e+00	0	0
618203	2.154000e+00	-6.303079e+01	3.671594e-01	0	0
620156	2.154000e+00	-5.412934e+01	-5.324147e-01	0	0
622109	2.154000e+00	-3.465568e+01	-2.912900e-01	0	0
624063	2.154000e+00	-2.443629e+01	-3.557934e-01	0	0
626016	2.154000e+00	-6.902321e+00	-3.384311e-01	0	0
627969	2.154000e+00	1.364541e+01	-3.429899e-01	0	0
629922	2.154000e+00	3.393188e+01	-3.416824e-01	0	0
631875	2.154000e+00	3.015637e+01	-3.419197e-01	0	0
633828	2.154000e+00	9.448944e+00	-3.418441e-01	0	0
635781	2.154000e+00	1.742361e+01	-3.414748e-01	0	0
637734	2.154000e+00	2.885445e+01	-3.425932e-01	0	0
639688	2.154000e+00	4.001087e+01	-3.380534e-01	0	0
641641	2.153439e+00	4.539286e+01	-3.546603e-01	0	0
643594	2.153561e+00	5.472246e+01	-2.618673e-01	0	0
645547	2.153439e+00	6.182047e+01	-4.460977e-02	0	0
647500	2.153561e+00	5.767991e+01	1.242140e-01	0	0
649453	2.153439e+00	5.954426e+01	2.063180e-01	0	0
651406	2.153000e+00	6.052371e+01	2.174465e-01	0	0
653359	2.153000e+00	6.159512e+01	1.617850e-01	0	0
655313	2.153000e+00	7.433453e+01	4.972476e-02	0	0
657266	2.153000e+00	8.415891e+01	-1.206765e-01	0	0
659219	2.153562e+00	9.927552e+01	-2.967012e-01	0	0
661172	2.153438e+00	1.120701e+02	-3.493152e-01	0	0
663125	2.153000e+00	8.897173e+01	-3.392009e-01	0	0
665078	2.153000e+00	6.547151e+01	-3.381255e-01	0	0
667031	2.153000e+00	6.483738e+01	-3.521055e-01	0	0
668984	2.153000e+00	7.524686e+01	-2.968245e-01	0	0
670938	2.153000e+00	7.734408e+01	-5.035821e-01	0	0
672891	2.153000e+00	6.993294e+01	2.686456e-01	0	0
674844	2.153000e+00	5.254829e+01	-3.419579e+00	0	0
676797	2.153000e+00	3.242436e+01	-2.693597e+00	0	0
678750	2.153000e+00	2.396945e+01	2.082229e-01	0	0
680703	2.153000e+00	7.163290e+00	-5.596582e-01	0	0
682656	2.153000e+00	-5.428168e+00	-9.890872e-03	0	0
684609	2.153000e+00	-1.178665e+01	-1.440673e+00	0	0
686563	2.153000e+00	-5.037944e+00	5.188678e+00	0	0
688516	2.153000e+00	7.687461e+00	3.938907e+00	0	0
690469	2.153000e+00	-8.129147e+00	-1.533586e+00	0	0
692422	2.153000e+00	-3.028978e+01	8.367420e-01	0	0
694375	2.153000e+00	-5.473780e+01	-5.076251e+00	0	0
696328	2.153000e+00	-7.046679e+01	-3.868492e+00	0	0
698281	2.153000e+00	-8.703673e+01	4.529662e-01	0	0
700234	2.153000e+00	-9.526011e+01	-5.516314e-01	0	0
702188	2.153000e+00	-1.250906e+02	-2.824171e-01	0	0
704141	2.153000e+00	-1.365826e+02	-3.544070e-01	0	0
706094	2.153000e+00	-1.209191e+02	-3.350254e-01	0	0
708047	2.153000e+00	-1.282576e+02	-3.401261e-01	0	0
710000	2.153000e+00	-1.258948e+02	-3.386669e-01	0	0
711953	2.153000e+00	-1.210283e+02	-3.389654e-01	0	0
713906	2.153000e+00	-1.116235e+02	-3.387929e-01	0	0
715859	2.153000e+00	-1.293773e+02	-3.387465e-01	0	0
717813	2.153000e+00	-1.430962e+02	-3.386663e-01	0	0
719766	2.153000e+00	-1.456205e+02	-3.385952e-01	0	0
721719	2.153000e+00	-1.592419e+02	-3.385217e-01	0	0
723672	2.153000e+00	-1.562103e+02	-3.384488e-01	0	0
725625	2.153000e+00	-1.497176e+02	-3.383757e-01	0	0
727578	2.153000e+00	-1.468884e+02	-3.383027e-01	0	0
729531	2.153000e+00	-1.507653e+02	-3.382296e-01	0	0
731484	2.153000e+00	-1.419235e+02	-3.381565e-01	0	0
733438	2.153000e+00	-1.347014e+02	-3.380834e-01	0	0
735391	2.153000e+00	-1.462404e+02	-3.380103e-01	0	0
737344	2.153000e+00	-1.460701e+02	-3.379372e-01	0	0
739297	2.153000e+00	-1.447062e+02	-3.378641e-01	0	0
741250	2.153000e+00	-1.541852e+02	-3.377911e-01	0	0
743203	2.153000e+00	-1.624387e+02	-3.377175e-01	0	0
745156	2.153000e+00	-1.525684e+02	-3.376462e-01	0	0
747109	2.153000e+00	-1.532447e+02	-3.375664e-01	0	0
749063	2.153000e+00	-1.534935e+02	-3.375180e-01	0	0
751016	2.153000e+00	-1.751046e+02	-3.373522e-01	0	0
752969	2.153000e+00	-1.737363e+02	-3.376248e-01	0	0
754922	2.153000e+00	-1.481547e+02	-3.362610e-01	0	0
756875	2.153000e+00	-1.414176e+02	-3.410048e-01	0	0
758828	2.153000e+00	-1.451064e+02	-3.229542e-01	0	0
760781	2.153000e+00	-1.447544e+02	-3.899742e-01	0	0
762734	2.153000e+00	-1.370575e+02	-1.395034e-01	0	0
764688	2.153000e+00	-1.347081e+02	-1.074137e+00	0	0
766641	2.152434e+00	-1.353696e+02	3.413316e+00	0	0
768594	2.152000e+00	-1.366122e+02	2.534180e+00	0	0
770547	2.152000e+00	-1.230464e+02	-1.162764e+00	0	0
772500	2.152000e+00	-1.369447e+02	5.451443e-01	0	0
774453	2.152000e+00	-1.480490e+02	-4.021099e+00	0	0
776406	2.152000e+00	-1.709086e+02	-3.477283e+00	0	0
778359	2.152000e+00	-2.158449e+02	-6.338780e-01	0	0
780313	2.152000e+00	-2.492245e+02	-8.356418e-01	0	0
782266	2.152000e+00	-2.488895e+02	-2.205452e-01	0	0
784219	2.152000e+00	-2.366125e+02	-3.655221e-01	0	0
786172	2.152000e+00	-1.716729e+02	-3.344455e-01	0	0
788125	2.152000e+00	-9.039280e+01	-3.133395e-01	0	0
790078	2.152000e+00	-2.968183e+00	-4.284002e-01	0	0
792031	2.152000e+00	9.568416e+01	1.837932e-01	0	0
793984	2.152000e+00	1.802983e+02	8.046349e-01	0	0
795938	2.152000e+00	3.593549e+02	4.420477e-02	0	0
797891	2.152000e+00	6.523302e+02	-4.167465e-01	0	0
799844	2.152000e+00	9.162662e+02	-3.138697e-01	0	0
801797	2.152000e+00	1.187531e+03	-3.413416e-01	0	0
803750	2.152000e+00	1.486118e+03	-3.338878e-01	0	0
805703	2.152000e+00	1.737573e+03	-3.357921e-01	0	0
807656	2.152000e+00	1.918201e+03	-3.351889e-01	0	0
809609	2.152000e+00	1.943132e+03	-3.352575e-01	0	0
811563	2.152000e+00	1.844880e+03	-3.351462e-01	0	0
813516	2.152000e+00	1.565659e+03	-3.350830e-01	0	0
815469	2.152000e+00	1.239268e+03	-3.350070e-01	0	0
817422	2.152000e+00	9.980870e+02	-3.349344e-01	0	0
819375	2.152000e+00	8.004183e+02	-3.348609e-01	0	0
821328	2.152000e+00	5.884406e+02	-3.347876e-01	0	0
823281	2.152000e+00	2.328173e+02	-3.347142e-01	0	0
825234	2.152000e+00	-1.067179e+02	-3.346409e-01	0	0
827188	2.152000e+00	-2.438608e+02	-3.345675e-01	0	0
829141	2.152000e+00	-2.535615e+02	-3.344942e-01	0	0
831094	2.152000e+00	-2.153604e+02	-3.344210e-01	0	0
833047	2.152000e+00	-1.869578e+02	-3.343472e-01	0	0
835000	2.152000e+00	-1.655453e+02	-3.342753e-01	0	0
836953	2.152000e+00	-1.290710e+02	-3.341968e-01	0	0
838906	2.152000e+00	-1.030605e+02	-3.341429e-01	0	0
840859	2.152000e+00	-8.415528e+01	-3.339969e-01	0	0
842813	2.152000e+00	-7.260336e+01	-3.341948e-01	0	0
844766	2.152000e+00	-6.443871e+01	-3.331091e-01	0	0
846719	2.152000e+00	-6.079160e+01	-3.368139e-01	0	0
848672	2.152000e+00	-8.131546e+01	-3.226401e-01	0	0
850625	2.152000e+00	-8.016308e+01	-3.751911e-01	0	0
852578	2.152000e+00	-6.334878e+01	-1.787193e-01	0	0
854531	2.152000e+00	-6.233785e+01	-1.123817e+00	0	0
856484	2.152000e+00	-6.534515e+01	-9.175669e-01	0	0
858438	2.152000e+00	-7.330322e+01	-1.996732e-01	0	0
860391	2.152000e+00	-7.919974e+01	-3.760410e-01	0	0
862344	2.152000e+00	-8.349658e+01	-2.960840e-01	0	0
864297	2.152000e+00	-7.530806e+01	-4.391101e-01	0	0
866250	2.152000e+00	-7.885001e+01	1.955162e-01	0	0
868203	2.152000e+00	-8.724838e+01	5.551315e-02	0	0
870156	2.152000e+00	-7.876200e+01	-4.207797e-01	0	0
872109	2.152000e+00	-7.169649e+01	-3.093489e-01	0	0
874063	2.152000e+00	-7.856804e+01	-3.391069e-01	0	0
876016	2.152000e+00	-8.521116e+01	-3.310465e-01	0	0
877969	2.152000e+00	-7.769537e+01	-3.331132e-01	0	0
879922	2.152000e+00	-8.142418e+01	-3.324665e-01	0	0
881875	2.152000e+00	-8.460952e+01	-3.325469e-01	0	0
883828	2.151429e+00	-8.098162e+01	-3.324324e-01	0	0
885781	2.151571e+00	-8.901745e+01	-3.323702e-01	0	0
887734	2.151429e+00	-8.678080e+01	-3.322940e-01	0	0
889688	2.151000e+00	-8.490995e+01	-3.322214e-01	0	0
891641	2.151000e+00	-8.565312e+01	-3.321480e-01	0	0
893594	2.151000e+00	-8.579285e+01	-3.320747e-01	0	0
895547	2.151000e+00	-8.236360e+01	-3.320015e-01	0	0
897500	2.151000e+00	-6.661744e+01	-3.319282e-01	0	0
899453	2.151000e+00	-5.922596e+01	-3.318550e-01	0	0
901406	2.151000e+00	-5.875107e+01	-3.317817e-01	0	0
903359	2.151000e+00	-5.724333e+01	-3.317085e-01	0	0
905313	2.151000e+00	-5.366379e+01	-3.316352e-01	0	0
907266	2.151000e+00	-5.587293e+01	-3.315620e-01	0	0
909219	2.151000e+00	-3.896919e+01	-3.314888e-01	0	0
911172	2.151000e+00	-3.262260e+01	-3.314155e-01	0	0
913125	2.151000e+00	-3.464698e+01	-3.313421e-01	0	0
915078	2.151000e+00	-3.660780e+01	-3.312685e-01	0	0
917031	2.151000e+00	-4.661312e+01	-3.311947e-01	0	0
918984	2.151000e+00	-4.176515e+01	-3.311207e-01	0	0
920938	2.151000e+00	-3.740187e+01	-3.310464e-01	0	0
922891	2.151000e+00	-4.073282e+01	-3.309720e-01	0	0
924844	2.151000e+00	-3.589088e+01	-3.308974e-01	0	0
926797	2.151000e+00	-2.144591e+01	-3.308225e-01	0	0
928750	2.151000e+00	-1.318805e+01	-3.307475e-01	0	0
930703	2.151000e+00	-1.503660e+01	-3.306723e-01	0	0
932656	2.151000e+00	-1.194714e+01	-3.305969e-01	0	0
934609	2.151000e+00	-4.509945e-01	-3.305213e-01	0	0
936563	2.151000e+00	-2.444522e+00	-3.304455e-01	0	0
938516	2.151000e+00	3.246814e+00	-3.303694e-01	0	0
940469	2.151000e+00	-1.501658e-01	-3.302932e-01	0	0
942422	2.151000e+00	-4.331166e+00	-3.302168e-01	0	0
944375	2.151000e+00	-3.287232e+00	-3.301402e-01	0	0
946328	2.151000e+00	3.069492e+00	-3.300634e-01	0	0
948281	2.151000e+00	5.934848e+00	-3.299864e-01	0	0
950234	2.151000e+00	1.728748e+01	-3.299092e-01	0	0
952188	2.151000e+00	2.881165e+01	-3.298318e-01	0	0
954141	2.151000e+00	2.482578e+01	-3.297542e-01	0	0
956094	2.151000e+00	2.322081e+01	-3.296764e-01	0	0
958047	2.151000e+00	2.131408e+01	-3.295984e-01	0	0
960000	2.151000e+00	3.548426e+01	-3.295202e-01	0	0
961953	2.151000e+00	4.816394e+01	-3.294419e-01	0	0
963906	2.151000e+00	3.770083e+01	-3.293633e-01	0	0
965859	2.151000e+00	3.734044e+01	-3.292845e-01	0	0
967813	2.151000e+00	5.303762e+01	-3.292055e-01	0	0
969766	2.151000e+00	6.222814e+01	-3.291263e-01	0	0
971719	2.151000e+00	6.840479e+01	-3.290469e-01	0	0
973672	2.151000e+00	6.952645e+01	-3.289673e-01	0	0
975625	2.151000e+00	6.830912e+01	-3.288875e-01	0	0
977578	2.151000e+00	7.166299e+01	-3.288076e-01	0	0
979531	2.151000e+00	7.192581e+01	-3.287274e-01	0	0
981484	2.151000e+00	7.048778e+01	-3.286471e-01	0	0
983438	2.151000e+00	7.755985e+01	-3.285663e-01	0	0
985391	2.151000e+00	8.481518e+01	-3.284863e-01	0	0
987344	2.151000e+00	9.339016e+01	-3.284024e-01	0	0
989297	2.151000e+00	1.080583e+02	-3.283319e-01	0	0
991250	2.151000e+00	1.292681e+02	-3.282109e-01	0	0
993203	2.151000e+00	1.485055e+02	-3.282774e-01	0	0
995156	2.151000e+00	1.500936e+02	-3.276429e-01	0	0
997109	2.151000e+00	1.448978e+02	-3.296239e-01	0	0
999063	2.151000e+00	1.394493e+02	-3.218412e-01	0	0
1001016	2.151000e+00	1.467768e+02	-3.504991e-01	0	0
1002969	2.151000e+00	1.567427e+02	-2.431551e-01	0	0
1004922	2.151000e+00	1.639185e+02	-6.433830e-01	0	0
1006875	2.150423e+00	1.767314e+02	1.302360e+00	0	0
1008828	2.150000e+00	1.877242e+02	8.935728e-01	0	0
1010781	2.150577e+00	1.937062e+02	-7.644532e-01	0	0
1012734	2.150423e+00	2.155177e+02	3.784896e-01	0	0
1014688	2.150577e+00	2.275880e+02	-3.615423e+00	0	0
1016641	2.150423e+00	2.294099e+02	-2.660183e+00	0	0
1018594	2.150000e+00	2.547209e+02	2.164351e-01	0	0
1020547	2.150000e+00	2.482522e+02	-5.220137e-01	0	0
1022500	2.150000e+00	2.461657e+02	-9.033706e-02	0	0
1024453	2.150000e+00	2.637050e+02	-1.078134e+00	0	0
1026406	2.150000e+00	2.856352e+02	3.499872e+00	0	0
1028359	2.150000e+00	3.033955e+02	2.452424e+00	0	0
1030313	2.150000e+00	3.255147e+02	-1.111672e+00	0	0
1032266	2.150000e+00	3.502110e+02	4.516118e-01	0	0
1034219	2.150000e+00	3.676662e+02	-3.525810e+00	0	0
1036172	2.150000e+00	3.730155e+02	-2.558350e+00	0	0
1038125	2.150000e+00	3.796634e+02	1.809924e-01	0	0
1040078	2.150000e+00	3.850996e+02	-4.620457e-01	0	0
1042031	2.150000e+00	3.946119e+02	-2.896444e-01	0	0
1043984	2.150000e+00	3.968745e+02	-3.357266e-01	0	0
1045938	2.150000e+00	4.084408e+02	-3.232720e-01	0	0
1047891	2.150000e+00	4.367456e+02	-3.264961e-01	0	0
1049844	2.150000e+00	4.561504e+02	-3.255216e-01	0	0
1051797	2.150000e+00	4.800085e+02	-3.256718e-01	0	0
1053750	2.150000e+00	4.883999e+02	-3.255204e-01	0	0
1055703	2.150000e+00	4.972313e+02	-3.254496e-01	0	0
1057656	2.150000e+00	5.077102e+02	-3.253569e-01	0	0
1059609	2.150000e+00	5.075800e+02	-3.252699e-01	0	0
1061563	2.150000e+00	4.999514e+02	-3.251810e-01	0	0
1063516	2.150000e+00	5.118483e+02	-3.250924e-01	0	0
1065469	2.150000e+00	5.173048e+02	-3.250035e-01	0	0
1067422	2.150000e+00	5.355021e+02	-3.249145e-01	0	0
1069375	2.150000e+00	5.568281e+02	-3.248249e-01	0	0
1071328	2.150000e+00	5.567250e+02	-3.247364e-01	0	0
1073281	2.150000e+00	5.531190e+02	-3.246431e-01	0	0
1075234	2.150000e+00	5.410843e+02	-3.245669e-01	0	0
1077188	2.150000e+00	5.267918e+02	-3.244257e-01	0	0
1079141	2.150000e+00	5.065093e+02	-3.245260e-01	0	0
1081094	2.150000e+00	4.855493e+02	-3.237243e-01	0	0
1083047	2.150000e+00	4.546892e+02	-3.262881e-01	0	0
1085000	2.150000e+00	4.384588e+02	-3.162907e-01	0	0
1086953	2.150000e+00	4.199858e+02	-3.531719e-01	0	0
1088906	2.150000e+00	3.721255e+02	-2.150966e-01	0	0
1090859	2.150000e+00	3.423087e+02	-8.289313e-01	0	0
1092813	2.150000e+00	3.274022e+02	-1.308692e-02	0	0
1094766	2.150000e+00	2.878551e+02	-3.167801e+00	0	0
1096719	2.150000e+00	2.538250e+02	-2.379960e+00	0	0
1098672	2.150000e+00	2.294109e+02	1.600804e-01	0	0
1100625	2.150000e+00	2.034170e+02	-5.049013e-01	0	0
1102578	2.150000e+00	1.745677e+02	-8.066571e-02	0	0
1104531	2.150000e+00	1.486279e+02	-9.796726e-01	0	0
1106484	2.150000e+00	1.328215e+02	5.850434e+00	0	0
1108438	2.150000e+00	1.072553e+02	4.124838e+00	0	0
1110391	2.150000e+00	9.769530e+01	-1.215023e+00	0	0
1112344	2.150000e+00	7.737497e+01	6.069772e-01	0	0
1114297	2.150000e+00	4.949910e+01	-4.181808e+00	0	0
1116250	2.150000e+00	2.396485e+01	-2.971108e+00	0	0
1118203	2.150000e+00	1.290102e-02	2.811312e-01	0	0
1120156	2.150000e+00	-9.782478e+00	-4.841751e-01	0	0
1122109	2.150000e+00	-1.469299e+01	-2.790040e-01	0	0
1124063	2.150000e+00	-2.703462e+01	-3.338444e-01	0	0
1126016	2.150000e+00	-4.178123e+01	-3.190420e-01	0	0
1127969	2.149417e+00	-4.654279e+01	-3.228874e-01	0	0
1129922	2.149583e+00	-5.064923e+01	-3.217361e-01	0	0
1131875	2.149417e+00	-6.363088e+01	-3.219234e-01	0	0
1133828	2.149000e+00	-5.827169e+01	-3.217518e-01	0	0
1135781	2.149000e+00	-5.347255e+01	-3.216762e-01	0	0
1137734	2.149000e+00	-6.030073e+01	-3.215745e-01	0	0
1139688	2.149000e+00	-7.540726e+01	-3.214795e-01	0	0
1141641	2.149583e+00	-8.139435e+01	-3.213826e-01	0	0
1143594	2.150000e+00	-7.871963e+01	-3.212859e-01	0	0
1145547	2.149417e+00	-8.972339e+01	-3.211889e-01	0	0
1147500	2.149000e+00	-8.548015e+01	-3.210917e-01	0	0
1149453	2.149000e+00	-8.189902e+01	-3.209943e-01	0	0
1151406	2.149000e+00	-8.636636e+01	-3.208967e-01	0	0
1153359	2.149000e+00	-9.184605e+01	-3.207990e-01	0	0
1155313	2.149000e+00	-1.068978e+02	-3.207009e-01	0	0
1157266	2.149000e+00	-1.064747e+02	-3.206028e-01	0	0
1159219	2.149000e+00	-1.062813e+02	-3.205044e-01	0	0
1161172	2.149000e+00	-1.139001e+02	-3.204059e-01	0	0
1163125	2.149000e+00	-1.072030e+02	-3.203067e-01	0	0
1165078	2.149000e+00	-1.017072e+02	-3.202093e-01	0	0
1167031	2.149000e+00	-8.853300e+01	-3.201044e-01	0	0
1168984	2.149000e+00	-8.643823e+01	-3.200267e-01	0	0
1170938	2.149000e+00	-8.591452e+01	-3.198464e-01	0	0
1172891	2.149000e+00	-8.476288e+01	-3.200478e-01	0	0
1174844	2.149000e+00	-8.959210e+01	-3.188240e-01	0	0
1176797	2.149000e+00	-9.379499e+01	-3.229181e-01	0	0
1178750	2.149000e+00	-1.044210e+02	-3.071643e-01	0	0
1180703	2.149000e+00	-1.305486e+02	-3.654840e-01	0	0
1182656	2.149000e+00	-1.215718e+02	-1.473535e-01	0	0
1184609	2.149000e+00	-1.039460e+02	-9.609593e-01	0	0
1186563	2.149000e+00	-9.953275e+01	3.030325e+00	0	0
1188516	2.149000e+00	-8.987347e+01	2.048643e+00	0	0
1190469	2.149000e+00	-8.376148e+01	-1.046691e+00	0	0
1192422	2.149000e+00	-8.272628e+01	5.630007e-01	0	0
1194375	2.149000e+00	-9.422993e+01	-4.212173e+00	0	0
1196328	2.149000e+00	-9.910213e+01	-2.962166e+00	0	0
1198281	2.149000e+00	-9.762865e+01	2.926076e-01	0	0
1200234	2.149000e+00	-1.128247e+02	-5.066294e-01	0	0
1202188	2.149000e+00	-1.246177e+02	-1.764406e-01	0	0
1204141	2.149000e+00	-1.226105e+02	-6.975227e-01	0	0
1206094	2.149000e+00	-1.072128e+02	1.602818e+00	0	0
1208047	2.149000e+00	-9.675885e+01	9.960451e-01	0	0
1210000	2.149000e+00	-9.022043e+01	-6.186606e-01	0	0
1211953	2.149000e+00	-7.959682e+01	-2.371841e-01	0	0
1213906	2.149000e+00	-8.162322e+01	-3.392626e-01	0	0
1215859	2.149000e+00	-9.912430e+01	-3.117805e-01	0	0
1217813	2.149000e+00	-1.170466e+02	-3.190100e-01	0	0
1219766	2.149000e+00	-1.154624e+02	-3.169421e-01	0	0
1221719	2.149000e+00	-1.230953e+02	-3.173635e-01	0	0
1223672	2.149000e+00	-1.209912e+02	-3.171177e-01	0	0
1225625	2.149000e+00	-1.104561e+02	-3.170504e-01	0	0
1227578	2.149000e+00	-1.050569e+02	-3.169350e-01	0	0
1229531	2.149000e+00	-1.065251e+02	-3.168323e-01	0	0
1231484	2.149000e+00	-1.196445e+02	-3.167259e-01	0	0
1233438	2.149000e+00	-1.270425e+02	-3.166202e-01	0	0
1235391	2.149000e+00	-1.211467e+02	-3.165141e-01	0	0
1237344	2.149000e+00	-1.258957e+02	-3.164078e-01	0	0
1239297	2.149000e+00	-1.193645e+02	-3.163014e-01	0	0
1241250	2.149000e+00	-1.082823e+02	-3.161948e-01	0	0
1243203	2.149000e+00	-1.095967e+02	-3.160877e-01	0	0
1245156	2.149000e+00	-1.092785e+02	-3.159817e-01	0	0
1247109	2.149000e+00	-1.124643e+02	-3.158704e-01	0	0
1249063	2.149000e+00	-1.157366e+02	-3.157781e-01	0	0
1251016	2.149000e+00	-1.009729e+02	-3.156140e-01	0	0
1252969	2.149000e+00	-9.836843e+01	-3.157169e-01	0	0
1254922	2.148411e+00	-1.152339e+02	-3.148224e-01	0	0
1256875	2.148589e+00	-1.188250e+02	-3.176493e-01	0	0
1258828	2.149000e+00	-1.244356e+02	-3.065869e-01	0	0
1260781	2.148411e+00	-1.281986e+02	-3.473594e-01	0	0
1262734	2.148000e+00	-1.156773e+02	-1.946787e-01	0	0
1264688	2.148000e+00	-1.155416e+02	-7.640527e-01	0	0
1266641	2.148000e+00	-1.197378e+02	2.040014e+00	0	0
1268594	2.148000e+00	-1.060447e+02	1.309295e+00	0	0
1270547	2.148000e+00	-9.249660e+01	-7.785344e-01	0	0
1272500	2.148000e+00	-9.738541e+01	1.470208e-01	0	0
1274453	2.148000e+00	-1.110326e+02	-2.243139e+00	0	0
1276406	2.148000e+00	-1.172424e+02	-1.593635e+00	0	0
1278359	2.148000e+00	-1.097526e+02	-2.082325e-02	0	0
1280313	2.148000e+00	-9.936443e+01	-3.925255e-01	0	0
1282266	2.148000e+00	-1.143448e+02	-2.928755e-01	0	0
1284219	2.148000e+00	-1.158378e+02	-3.194343e-01	0	0
1286172	2.148000e+00	-1.038273e+02	-3.121775e-01	0	0
1288125	2.148000e+00	-1.044344e+02	-3.139807e-01	0	0
1290078	2.148000e+00	-9.890661e+01	-3.133561e-01	0	0
1292031	2.148000e+00	-9.496071e+01	-3.133818e-01	0	0
1293984	2.148000e+00	-1.068872e+02	-3.132330e-01	0	0
1295938	2.148000e+00	-1.171589e+02	-3.131307e-01	0	0
1297891	2.148000e+00	-1.091335e+02	-3.130157e-01	0	0
1299844	2.148000e+00	-1.090167e+02	-3.129039e-01	0	0
1301797	2.148000e+00	-1.171179e+02	-3.127909e-01	0	0
1303750	2.148000e+00	-1.143729e+02	-3.126780e-01	0	0
1305703	2.148000e+00	-1.205724e+02	-3.125649e-01	0	0
1307656	2.148000e+00	-1.261428e+02	-3.124516e-01	0	0
1309609	2.148000e+00	-1.144047e+02	-3.123380e-01	0	0
1311563	2.148000e+00	-1.107338e+02	-3.122242e-01	0	0
1313516	2.148000e+00	-1.177247e+02	-3.121103e-01	0	0
1315469	2.148000e+00	-1.328220e+02	-3.119962e-01	0	0
1317422	2.148000e+00	-1.413716e+02	-3.118819e-01	0	0
1319375	2.148000e+00	-1.348250e+02	-3.117673e-01	0	0
1321328	2.148000e+00	-1.379290e+02	-3.116528e-01	0	0
1323281	2.148000e+00	-1.355652e+02	-3.115373e-01	0	0
1325234	2.148000e+00	-1.357904e+02	-3.114243e-01	0	0
1327188	2.148000e+00	-1.384902e+02	-3.113013e-01	0	0
1329141	2.148000e+00	-1.411055e+02	-3.112143e-01	0	0
1331094	2.148000e+00	-1.445947e+02	-3.109924e-01	0	0
1333047	2.148000e+00	-1.363819e+02	-3.112729e-01	0	0
1335000	2.148000e+00	-1.288200e+02	-3.096773e-01	0	0
1336953	2.148000e+00	-1.248689e+02	-3.150825e-01	0	0
1338906	2.148000e+00	-1.267167e+02	-2.880676e-01	0	0
1340859	2.148000e+00	-1.364097e+02	-2.801884e-01	0	0
1342813	2.148000e+00	-1.463208e+02	-5.240777e-02	0	0
1344766	2.148000e+00	-1.468739e+02	-6.245048e-01	0	0
1346719	2.148000e+00	-1.397414e+02	2.505978e+00	0	0
1348672	2.148000e+00	-1.408835e+02	1.715920e+00	0	0
1350625	2.148000e+00	-1.295089e+02	-5.378358e-01	0	0
1352578	2.148000e+00	-1.135168e+02	5.679556e-01	0	0
1354531	2.148000e+00	-1.310920e+02	-2.427316e+00	0	0
1356484	2.148000e+00	-1.478738e+02	-1.583846e+00	0	0
1358438	2.148000e+00	-1.369254e+02	3.665523e-01	0	0
1360391	2.148000e+00	-1.307039e+02	-1.212597e-01	0	0
1362344	2.148000e+00	-1.395268e+02	-3.367544e-02	0	0
1364297	2.148000e+00	-1.508236e+02	-1.217520e-01	0	0
1366250	2.148000e+00	-1.410683e+02	-1.805413e-01	0	0
1368203	2.148000e+00	-1.343935e+02	-2.793356e-01	0	0
1370156	2.148000e+00	-1.421800e+02	-3.149980e-01	0	0
1372109	2.148000e+00	-1.290618e+02	-3.068970e-01	0	0
1374063	2.148000e+00	-1.273099e+02	-3.090209e-01	0	0
1376016	2.147405e+00	-1.362496e+02	-3.079040e-01	0	0
1377969	2.147595e+00	-1.436277e+02	-3.095283e-01	0	0
1379922	2.148000e+00	-1.403096e+02	-3.034256e-01	0	0
1381875	2.148000e+00	-1.420664e+02	-3.254888e-01	0	0
1383828	2.148000e+00	-1.496578e+02	-2.023147e-01	0	0
1385781	2.148000e+00	-1.446016e+02	-4.709863e-02	0	0
1387734	2.148000e+00	-1.461344e+02	-2.165296e-01	0	0
1389688	2.147405e+00	-1.361973e+02	-3.276949e-01	0	0
1391641	2.147000e+00	-1.332544e+02	-3.019839e-01	0	0
1393594	2.147000e+00	-1.380608e+02	-3.087233e-01	0	0
1395547	2.147595e+00	-1.347383e+02	-3.067435e-01	0	0
1397500	2.148000e+00	-1.431065e+02	-3.071908e-01	0	0
1399453	2.147405e+00	-1.582673e+02	-3.066469e-01	0	0
1401406	2.147000e+00	-1.683401e+02	-3.076398e-01	0	0
1403359	2.147000e+00	-1.674219e+02	-3.034756e-01	0	0
1405313	2.147000e+00	-1.536621e+02	-3.184033e-01	0	0
1407266	2.147000e+00	-1.360387e+02	-2.621163e-01	0	0
1409219	2.147000e+00	-1.410142e+02	-5.313457e-01	0	0
1411172	2.147000e+00	-1.429482e+02	-3.147362e-01	0	0
1413125	2.147000e+00	-1.598545e+02	-5.770461e-02	0	0
1415078	2.147000e+00	-1.814394e+02	-2.296902e-01	0	0
1417031	2.147596e+00	-1.642612e+02	-3.083713e-01	0	0
1418984	2.147404e+00	-1.544230e+02	-2.817495e-01	0	0
1420938	2.147000e+00	-1.592588e+02	-4.069324e-01	0	0
1422891	2.147000e+00	-1.705628e+02	-4.272988e-02	0	0
1424844	2.147000e+00	-1.712749e+02	-8.013291e-01	0	0
1426797	2.147000e+00	-1.643243e+02	2.770632e+00	0	0
1428750	2.147000e+00	-1.467028e+02	1.303817e+00	0	0
1430703	2.147000e+00	-1.434555e+02	-1.786140e+00	0	0
1432656	2.147000e+00	-1.538527e+02	-4.799131e-01	0	0
1434609	2.147000e+00	-1.613687e+02	-4.762112e+00	0	0
1436563	2.147000e+00	-1.612757e+02	-3.672032e+00	0	0
1438516	2.147000e+00	-1.559355e+02	-1.097770e+00	0	0
1440469	2.147000e+00	-1.681444e+02	-1.830519e+00	0	0
1442422	2.147000e+00	-1.708806e+02	-1.672693e+00	0	0
1444375	2.147000e+00	-1.715599e+02	-1.507588e+00	0	0
1446328	2.147000e+00	-1.754411e+02	-1.059401e+00	0	0
1448281	2.147000e+00	-1.661507e+02	-4.705856e-01	0	0
1450234	2.147000e+00	-1.579808e+02	-2.682867e-01	0	0
1452188	2.147000e+00	-1.662596e+02	-3.125455e-01	0	0
1454141	2.147000e+00	-1.645323e+02	-3.026087e-01	0	0
1456094	2.147000e+00	-1.690213e+02	-2.973698e-01	0	0
1458047	2.147000e+00	-1.753444e+02	-3.274924e-01	0	0
1460000	2.147000e+00	-1.713921e+02	-1.359642e-01	0	0
1461953	2.147000e+00	-1.721995e+02	3.833506e-01	0	0
1463906	2.147000e+00	-1.856713e+02	8.429864e-01	0	0
1465859	2.147000e+00	-1.764938e+02	1.044901e+00	0	0
1467813	2.147000e+00	-1.703781e+02	1.049081e+00	0	0
1469766	2.147000e+00	-1.715846e+02	9.767458e-01	0	0
1471719	2.147000e+00	-1.752915e+02	8.765158e-01	0	0
1473672	2.147000e+00	-1.796173e+02	7.396585e-01	0	0
1475625	2.147000e+00	-1.722743e+02	5.715539e-01	0	0
1477578	2.147000e+00	-1.713785e+02	3.714593e-01	0	0
1479531	2.147000e+00	-1.513447e+02	1.496286e-01	0	0
1481484	2.147000e+00	-1.479701e+02	-1.215311e-01	0	0
1483438	2.147000e+00	-1.458366e+02	-2.863878e-01	0	0
1485391	2.147000e+00	-1.401276e+02	-3.038668e-01	0	0
1487344	2.147000e+00	-1.193899e+02	-3.004997e-01	0	0
1489297	2.147000e+00	-9.140985e+01	-3.012434e-01	0	0
1491250	2.147000e+00	-6.666135e+01	-3.008461e-01	0	0
1493203	2.147000e+00	-5.525623e+01	-3.009011e-01	0	0
1495156	2.147000e+00	-5.977982e+01	-3.002864e-01	0	0
1497109	2.147000e+00	-5.758303e+01	-3.018974e-01	0	0
1499063	2.147000e+00	-5.839032e+01	-2.952735e-01	0	0
1501016	2.147000e+00	-6.685120e+01	-3.193631e-01	0	0
1502969	2.147000e+00	-6.907061e+01	-2.288314e-01	0	0
1504922	2.147000e+00	-5.809304e+01	-5.660728e-01	0	0
1506875	2.147000e+00	-4.043453e+01	1.118391e+00	0	0
1508828	2.147000e+00	-2.851411e+01	6.380739e-01	0	0
1510781	2.146399e+00	-2.874430e+01	-6.088189e-01	0	0
1512734	2.146601e+00	-8.116659e+00	-1.502735e-01	0	0
1514688	2.147000e+00	5.414662e+00	-2.120647e+00	0	0
1516641	2.147000e+00	6.080796e+00	-1.703246e+00	0	0
1518594	2.147000e+00	1.172379e+01	-6.431161e-01	0	0
1520547	2.147000e+00	5.603361e+00	-9.327695e-01	0	0
1522500	2.146399e+00	-3.589785e+00	-8.184592e-01	0	0
1524453	2.146601e+00	6.684875e+00	-7.382094e-01	0	0
1526406	2.147000e+00	1.452905e+01	-5.924468e-01	0	0
1528359	2.146398e+00	-6.698488e-01	-3.791141e-01	0	0
1530313	2.146000e+00	-3.255597e+00	-2.883503e-01	0	0
1532266	2.146000e+00	7.081159e-01	-3.009651e-01	0	0
1534219	2.146000e+00	1.539656e+00	-2.972078e-01	0	0
1536172	2.146000e+00	1.353070e+00	-2.980418e-01	0	0
1538125	2.146000e+00	3.120100e+00	-2.976454e-01	0	0
1540078	2.146000e+00	-3.365150e+00	-2.975783e-01	0	0
1542031	2.146000e+00	-1.088437e+01	-2.974231e-01	0	0
1543984	2.146000e+00	-1.238472e+01	-2.972900e-01	0	0
1545938	2.146000e+00	-2.076379e+01	-2.971553e-01	0	0
1547891	2.146000e+00	-3.655614e+01	-2.970037e-01	0	0
1549844	2.146000e+00	-5.132819e+01	-2.969200e-01	0	0
1551797	2.146000e+00	-5.297982e+01	-2.965808e-01	0	0
1553750	2.146000e+00	-5.724738e+01	-2.971942e-01	0	0
1555703	2.146000e+00	-7.341385e+01	-2.942518e-01	0	0
1557656	2.146000e+00	-1.119891e+02	-3.014680e-01	0	0
1559609	2.146000e+00	-1.527472e+02	-1.979014e-01	0	0
1561563	2.146000e+00	-1.768189e+02	-1.065486e-01	0	0
1563516	2.146000e+00	-1.704780e+02	-1.396803e-01	0	0
1565469	2.146000e+00	-1.837032e+02	-2.562444e-01	0	0
1567422	2.146000e+00	-1.892545e+02	-3.051737e-01	0	0
1569375	2.146000e+00	-1.788223e+02	-2.894578e-01	0	0
1571328	2.146000e+00	-1.788636e+02	-3.099377e-01	0	0
1573281	2.146000e+00	-1.681883e+02	-2.428945e-01	0	0
1575234	2.146000e+00	-1.759247e+02	-5.743014e-01	0	0
1577188	2.146000e+00	-1.893227e+02	-4.763230e-01	0	0
1579141	2.146000e+00	-2.051964e+02	-2.387442e-01	0	0
1581094	2.146000e+00	-2.147899e+02	-3.612353e-01	0	0
1583047	2.146000e+00	-2.354471e+02	-8.420331e-02	0	0
1585000	2.146000e+00	-2.426178e+02	-1.069002e+00	0	0
1586953	2.146000e+00	-2.376234e+02	3.855295e+00	0	0
1588906	2.146000e+00	-2.354631e+02	2.422428e+00	0	0
1590859	2.146000e+00	-2.278319e+02	-1.289305e+00	0	0
1592813	2.146000e+00	-2.239690e+02	-1.591906e-01	0	0
1594766	2.146000e+00	-2.209306e+02	-6.339393e+00	0	0
1596719	2.146000e+00	-2.265617e+02	-5.397877e+00	0	0
1598672	2.146000e+00	-2.331368e+02	-1.941567e+00	0	0
1600625	2.146000e+00	-2.268121e+02	-2.472892e+00	0	0
1602578	2.146000e+00	-2.297924e+02	-1.973038e+00	0	0
1604531	2.146000e+00	-2.455330e+02	-1.859548e+00	0	0
1606484	2.146000e+00	-2.479497e+02	1.441756e-01	0	0
1608438	2.146000e+00	-2.544633e+02	3.073859e-01	0	0
1610391	2.146000e+00	-2.403490e+02	-4.348791e-01	0	0
1612344	2.146000e+00	-2.231109e+02	-2.542379e-01	0	0
1614297	2.146000e+00	-2.330909e+02	-3.023986e-01	0	0
1616250	2.146000e+00	-2.416362e+02	-2.895214e-01	0	0
1618203	2.146000e+00	-2.480323e+02	-2.920067e-01	0	0
1620156	2.146000e+00	-2.540804e+02	-2.940754e-01	0	0
1622109	2.146000e+00	-2.515930e+02	-2.824476e-01	0	0
1624063	2.146000e+00	-2.375787e+02	-3.260235e-01	0	0
1626016	2.146000e+00	-2.352829e+02	-5.297376e-02	0	0
1627969	2.146000e+00	-2.323235e+02	6.688570e-01	0	0
1629922	2.146000e+00	-2.288533e+02	1.387653e+00	0	0
1631875	2.146000e+00	-2.344389e+02	1.929924e+00	0	0
1633828	2.146000e+00	-2.336924e+02	2.303962e+00	0	0
1635781	2.146000e+00	-2.419293e+02	2.472558e+00	0	0
1637734	2.146000e+00	-2.587519e+02	2.430414e+00	0	0
1639688	2.146000e+00	-2.872413e+02	2.206705e+00	0	0
1641641	2.146000e+00	-3.246301e+02	1.826621e+00	0	0
1643594	2.146000e+00	-3.569963e+02	1.301668e+00	0	0
1645547	2.146000e+00	-3.552883e+02	6.615599e-01	0	0
1647500	2.146000e+00	-3.292655e+02	-8.983436e-02	0	0
1649453	2.146000e+00	-2.444006e+02	-3.324443e-01	0	0
1651406	2.146000e+00	-1.606633e+02	-2.779632e-01	0	0
1653359	2.145392e+00	-7.316951e+01	-2.924150e-01	0	0
1655313	2.145608e+00	4.317091e+01	-2.881987e-01	0	0
1657266	2.146000e+00	1.308963e+02	-2.897262e-01	0	0
1659219	2.146000e+00	2.753308e+02	-2.869387e-01	0	0
1661172	2.146000e+00	5.304083e+02	-2.956702e-01	0	0
1663125	2.146000e+00	7.859776e+02	-2.626390e-01	0	0
1665078	2.145392e+00	1.036406e+03	-3.851391e-01	0	0
1667031	2.145000e+00	1.323878e+03	1.816916e-01	0	0
1668984	2.145000e+00	1.573998e+03	-7.649897e-01	0	0
1670938	2.145000e+00	1.762720e+03	-1.968662e+00	0	0
1672891	2.145000e+00	1.752094e+03	-1.810240e+00	0	0
1674844	2.145000e+00	1.620046e+03	-3.773350e+00	0	0
1676797	2.145000e+00	1.381532e+03	-3.191535e+00	0	0
1678750	2.145000e+00	1.086526e+03	-1.938874e+00	0	0
1680703	2.145609e+00	8.231675e+02	-2.026572e+00	0	0
1682656	2.145391e+00	6.277684e+02	-1.619947e+00	0	0
1684609	2.145000e+00	5.140170e+02	-1.504151e+00	0	0
1686563	2.145000e+00	2.655197e+02	-2.146372e-02	0	0
1688516	2.145000e+00	-3.796992e+01	1.363161e-01	0	0
1690469	2.145000e+00	-2.077906e+02	-3.958831e-01	0	0
1692422	2.145000e+00	-2.778443e+02	-2.101844e-01	0	0
1694375	2.145000e+00	-3.148451e+02	-2.629513e-01	0	0
1696328	2.145000e+00	-3.256343e+02	-2.911502e-01	0	0
1698281	2.145000e+00	-3.079290e+02	-2.844665e-01	0	0
1700234	2.145000e+00	-2.948650e+02	-2.860636e-01	0	0
1702188	2.145000e+00	-2.631265e+02	-2.854426e-01	0	0
1704141	2.145000e+00	-2.238190e+02	-2.854124e-01	0	0
1706094	2.145000e+00	-2.054850e+02	-2.852355e-01	0	0
1708047	2.145000e+00	-1.818087e+02	-2.850543e-01	0	0
1710000	2.145000e+00	-1.731035e+02	-2.850355e-01	0	0
1711953	2.145000e+00	-1.636211e+02	-2.843703e-01	0	0
1713906	2.145000e+00	-1.752119e+02	-2.861270e-01	0	0
1715859	2.145000e+00	-1.848490e+02	-2.788415e-01	0	0
1717813	2.145000e+00	-1.890449e+02	-3.053024e-01	0	0
1719766	2.145000e+00	-1.933592e+02	-1.503181e-01	0	0
1721719	2.145000e+00	-2.062118e+02	1.021313e-01	0	0
1723672	2.145000e+00	-2.173353e+02	2.909585e-01	0	0
1725625	2.145000e+00	-2.048294e+02	4.428681e-01	0	0
1727578	2.145000e+00	-1.977534e+02	5.516924e-01	0	0
1729531	2.145000e+00	-2.000344e+02	6.203298e-01	0	0
1731484	2.145000e+00	-1.749525e+02	6.496832e-01	0	0
1733438	2.145000e+00	-1.632618e+02	6.422748e-01	0	0
1735391	2.145000e+00	-1.744190e+02	6.006112e-01	0	0
1737344	2.145000e+00	-1.648319e+02	5.250392e-01	0	0
1739297	2.145000e+00	-1.791809e+02	4.077205e-01	0	0
1741250	2.145000e+00	-1.826931e+02	8.853023e-02	0	0
1743203	2.145000e+00	-1.782265e+02	-1.857273e-01	0	0
1745156	2.145000e+00	-1.954465e+02	-4.326310e-01	0	0
1747109	2.145000e+00	-2.008207e+02	4.727500e-01	0	0
1749063	2.145000e+00	-2.031042e+02	2.108715e-01	0	0
1751016	2.145000e+00	-1.924516e+02	-5.030756e-01	0	0
1752969	2.145000e+00	-1.829473e+02	1.712390e-01	0	0
1754922	2.145000e+00	-1.753535e+02	-2.584469e+00	0	0
1756875	2.145000e+00	-1.688066e+02	-1.679101e+00	0	0
1758828	2.145000e+00	-1.719796e+02	5.219854e-02	0	0
1760781	2.145000e+00	-1.804460e+02	-3.960873e-01	0	0
1762734	2.145000e+00	-1.759270e+02	-1.700449e-01	0	0
1764688	2.145000e+00	-1.668129e+02	-9.016102e-01	0	0
1766641	2.145000e+00	-1.575133e+02	1.887269e+00	0	0
1768594	2.145000e+00	-1.539470e+02	1.128035e+00	0	0
1770547	2.145000e+00	-1.672941e+02	-6.592891e-01	0	0
1772500	2.145000e+00	-1.601349e+02	5.175962e-03	0	0
1774453	2.145000e+00	-1.544469e+02	-1.374889e+00	0	0
1776406	2.145000e+00	-1.523099e+02	-9.234737e-01	0	0
1778359	2.145000e+00	-1.636145e+02	-1.292761e-01	0	0
1780313	2.145000e+00	-1.640345e+02	-3.194515e-01	0	0
1782266	2.145000e+00	-1.482253e+02	-2.683410e-01	0	0
1784219	2.145000e+00	-1.409990e+02	-2.818310e-01	0	0
1786172	2.145000e+00	-1.369143e+02	-2.780123e-01	0	0
1788125	2.145000e+00	-1.272972e+02	-2.788309e-01	0	0
1790078	2.145000e+00	-1.193286e+02	-2.784067e-01	0	0
1792031	2.145000e+00	-1.268069e+02	-2.783153e-01	0	0
1793984	2.145000e+00	-1.240110e+02	-2.781345e-01	0	0
1795938	2.145000e+00	-1.199929e+02	-2.779773e-01	0	0
1797891	2.145000e+00	-1.348934e+02	-2.778136e-01	0	0
1799844	2.145000e+00	-1.327576e+02	-2.776514e-01	0	0
1801797	2.145000e+00	-1.359947e+02	-2.774886e-01	0	0
1803750	2.145000e+00	-1.359938e+02	-2.773256e-01	0	0
1805703	2.144385e+00	-1.270306e+02	-2.771629e-01	0	0
1807656	2.144000e+00	-1.370141e+02	-2.769983e-01	0	0
1809609	2.144000e+00	-1.517866e+02	-2.768395e-01	0	0
1811563	2.144000e+00	-1.488067e+02	-2.766579e-01	0	0
1813516	2.144000e+00	-1.272011e+02	-2.765607e-01	0	0
1815469	2.144000e+00	-1.152170e+02	-2.761476e-01	0	0
1817422	2.144000e+00	-1.069947e+02	-2.769126e-01	0	0
1819375	2.144000e+00	-9.283862e+01	-2.732801e-01	0	0
1821328	2.144000e+00	-1.040071e+02	-2.860583e-01	0	0
1823281	2.144000e+00	-1.057359e+02	-2.375899e-01	0	0
1825234	2.144000e+00	-9.594915e+01	-4.176963e-01	0	0
1827188	2.144000e+00	-9.834848e+01	5.011341e-01	0	0
1829141	2.144000e+00	-8.671572e+01	2.114793e-01	0	0
1831094	2.144000e+00	-7.623079e+01	-4.543626e-01	0	0
1833047	2.144000e+00	-6.620297e+01	1.511304e-02	0	0
1835000	2.144000e+00	-6.671923e+01	-1.702023e+00	0	0
1836953	2.144000e+00	-7.162726e+01	-1.122090e+00	0	0
1838906	2.144000e+00	-6.694898e+01	-7.556804e-02	0	0
1840859	2.144000e+00	-6.543395e+01	-3.293622e-01	0	0
1842813	2.144000e+00	-6.331387e+01	-2.521452e-01	0	0
1844766	2.144000e+00	-4.775871e+01	-3.062806e-01	0	0
1846719	2.144000e+00	-4.304115e+01	-1.166757e-01	0	0
1848672	2.144000e+00	-4.188780e+01	-1.807352e-01	0	0
1850625	2.144000e+00	-2.885123e+01	-2.950728e-01	0	0
1852578	2.144000e+00	-3.189117e+01	-2.673709e-01	0	0
1854531	2.144000e+00	-3.259693e+01	-2.745802e-01	0	0
1856484	2.144000e+00	-2.297939e+01	-2.724354e-01	0	0
1858438	2.144000e+00	-1.887635e+01	-2.727964e-01	0	0
1860391	2.144000e+00	-9.357134e+00	-2.724862e-01	0	0
1862344	2.144000e+00	-1.140989e+00	-2.723554e-01	0	0
1864297	2.144000e+00	4.039776e+00	-2.721763e-01	0	0
1866250	2.144000e+00	7.545955e+00	-2.720099e-01	0	0
1868203	2.144000e+00	1.272436e+01	-2.718398e-01	0	0
1870156	2.144000e+00	4.198556e+01	-2.716705e-01	0	0
1872109	2.144000e+00	6.256230e+01	-2.715007e-01	0	0
1874063	2.144000e+00	6.751440e+01	-2.713307e-01	0	0
1876016	2.144000e+00	7.340710e+01	-2.711606e-01	0	0
1877969	2.144000e+00	6.934009e+01	-2.709903e-01	0	0
1879922	2.144000e+00	8.712806e+01	-2.708199e-01	0	0
1881875	2.144000e+00	7.625176e+01	-2.706492e-01	0	0
1883828	2.144000e+00	7.601571e+01	-2.704783e-01	0	0
1885781	2.144000e+00	1.067269e+02	-2.703072e-01	0	0
1887734	2.144000e+00	1.239548e+02	-2.701360e-01	0	0
1889688	2.144000e+00	1.434957e+02	-2.699644e-01	0	0
1891641	2.144000e+00	1.644057e+02	-2.697928e-01	0	0
1893594	2.144000e+00	1.836863e+02	-2.696209e-01	0	0
1895547	2.144000e+00	1.917509e+02	-2.694493e-01	0	0
1897500	2.144000e+00	1.915108e+02	-2.692754e-01	0	0
1899453	2.144000e+00	2.013168e+02	-2.691092e-01	0	0
1901406	2.144000e+00	2.137506e+02	-2.689133e-01	0	0
1903359	2.144000e+00	2.157282e+02	-2.688273e-01	0	0
1905313	2.144000e+00	2.281468e+02	-2.683302e-01	0	0
1907266	2.144000e+00	2.406523e+02	-2.693661e-01	0	0
1909219	2.144000e+00	2.507745e+02	-2.646805e-01	0	0
1911172	2.144000e+00	2.614600e+02	-2.813467e-01	0	0
1913125	2.144000e+00	2.626314e+02	-2.183260e-01	0	0
1915078	2.144000e+00	2.749250e+02	-5.396636e-01	0	0
1917031	2.144000e+00	2.888159e+02	-4.314564e-01	0	0
1918984	2.144000e+00	2.984703e+02	-2.169351e-01	0	0
1920938	2.144000e+00	3.011060e+02	-3.249591e-01	0	0
1922891	2.144000e+00	3.106044e+02	-8.634843e-02	0	0
1924844	2.144000e+00	3.277692e+02	-9.317670e-01	0	0
1926797	2.144000e+00	3.449035e+02	3.380540e+00	0	0
1928750	2.144000e+00	3.723260e+02	1.914943e+00	0	0
1930703	2.144000e+00	3.730433e+02	-9.093103e-01	0	0
1932656	2.144000e+00	3.773479e+02	3.900909e-01	0	0
1934609	2.144000e+00	3.870032e+02	-3.162046e+00	0	0
1936563	2.144000e+00	3.630824e+02	-1.928914e+00	0	0
1938516	2.144000e+00	3.582657e+02	1.246520e-01	0	0
1940469	2.144000e+00	3.675081e+02	-3.699994e-01	0	0
1942422	2.144000e+00	3.413392e+02	-2.372476e-01	0	0
1944375	2.144000e+00	3.212926e+02	-2.725905e-01	0	0
1946328	2.144000e+00	3.123531e+02	-2.628969e-01	0	0
1948281	2.144000e+00	3.029367e+02	-2.652693e-01	0	0
1950234	2.144000e+00	2.850449e+02	-2.644088e-01	0	0
1952188	2.143377e+00	2.641338e+02	-2.644140e-01	0	0
1954141	2.143000e+00	2.280643e+02	-2.641872e-01	0	0
1956094	2.143623e+00	2.026418e+02	-2.640223e-01	0	0
1958047	2.143377e+00	1.766325e+02	-2.638405e-01	0	0
1960000	2.143000e+00	1.379337e+02	-2.636631e-01	0	0
1961953	2.143000e+00	9.402230e+01	-2.634841e-01	0	0
1963906	2.143000e+00	5.567821e+01	-2.633057e-01	0	0
1965859	2.143623e+00	2.799952e+01	-2.631257e-01	0	0
1967813	2.143377e+00	9.808266e+00	-2.629500e-01	0	0
1969766	2.143000e+00	-4.396388e-01	-2.627573e-01	0	0
1971719	2.143000e+00	-2.461690e+01	-2.626274e-01	0	0
1973672	2.143000e+00	-4.841927e+01	-2.622623e-01	0	0
1975625	2.143000e+00	-6.294597e+01	-2.627740e-01	0	0
1977578	2.143000e+00	-7.680082e+01	-2.590490e-01	0	0
1979531	2.143000e+00	-9.848429e+01	-2.601718e-01	0	0
1981484	2.143000e+00	-1.063834e+02	-2.619624e-01	0	0
1983438	2.143000e+00	-1.477217e+02	-2.618912e-01	0	0
1985391	2.143000e+00	-1.561411e+02	-2.595129e-01	0	0
1987344	2.143000e+00	-1.454050e+02	-2.680110e-01	0	0
1989297	2.143000e+00	-1.597703e+02	-2.353101e-01	0	0
1991250	2.143000e+00	-1.557746e+02	-3.565274e-01	0	0
1993203	2.143000e+00	-1.757556e+02	9.672883e-02	0	0
1995156	2.143000e+00	-1.779554e+02	-2.231209e+00	0	0
1997109	2.143000e+00	-1.638198e+02	-1.400643e+00	0	0
1999063	2.143000e+00	-1.801908e+02	1.915292e-02	0	0
2001016	2.143000e+00	-1.884635e+02	-3.760373e-01	0	0
2002969	2.143000e+00	-1.962718e+02	-7.420528e-02	0	0
2004922	2.143000e+00	-2.040375e+02	-6.553869e-01	0	0
2006875	2.143000e+00	-2.005601e+02	6.259584e+00	0	0
2008828	2.143000e+00	-2.077794e+02	3.568521e+00	0	0
2010781	2.143000e+00	-2.135789e+02	-1.112822e+00	0	0
2012734	2.143000e+00	-2.114325e+02	7.455362e-01	0	0
2014688	2.143000e+00	-2.049881e+02	-4.889582e+00	0	0
2016641	2.143000e+00	-2.066273e+02	-2.882476e+00	0	0
2018594	2.143000e+00	-2.160539e+02	3.904986e-01	0	0
2020547	2.143000e+00	-2.231176e+02	-6.753972e-01	0	0
2022500	2.143000e+00	-2.384279e+02	-1.296309e+00	0	0
2024453	2.143000e+00	-2.366103e+02	-1.465841e+00	0	0
2026406	2.143000e+00	-2.312201e+02	-5.305864e-01	0	0
2028359	2.143000e+00	-2.404539e+02	-1.968739e-01	0	0
2030313	2.143000e+00	-2.288774e+02	-2.732790e-01	0	0
2032266	2.143000e+00	-2.359857e+02	-2.525934e-01	0	0
2034219	2.143000e+00	-2.426865e+02	-2.579000e-01	0	0
2036172	2.143000e+00	-2.359480e+02	-2.562426e-01	0	0
2038125	2.143000e+00	-2.350735e+02	-2.564507e-01	0	0
2040078	2.143000e+00	-2.350724e+02	-2.561587e-01	0	0
2042031	2.143000e+00	-2.442639e+02	-2.560005e-01	0	0
2043984	2.143000e+00	-2.300352e+02	-2.558062e-01	0	0
2045938	2.143000e+00	-2.255793e+02	-2.556213e-01	0	0
2047891	2.143000e+00	-2.251445e+02	-2.554334e-01	0	0
2049844	2.143000e+00	-2.153098e+02	-2.552469e-01	0	0
2051797	2.143000e+00	-2.218948e+02	-2.550571e-01	0	0
2053750	2.143000e+00	-2.253153e+02	-2.548779e-01	0	0
2055703	2.143000e+00	-2.308990e+02	-2.546586e-01	0	0
2057656	2.143000e+00	-2.464363e+02	-2.545877e-01	0	0
2059609	2.143000e+00	-2.419468e+02	-2.539623e-01	0	0
2061563	2.143000e+00	-2.370836e+02	-2.554051e-01	0	0
2063516	2.143000e+00	-2.379857e+02	-2.491283e-01	0	0
2065469	2.143000e+00	-2.319622e+02	-2.716606e-01	0	0
2067422	2.143000e+00	-2.240165e+02	-1.279353e-01	0	0
2069375	2.143000e+00	-2.370891e+02	1.798009e-01	0	0
2071328	2.143000e+00	-2.521596e+02	3.530355e-01	0	0
2073281	2.143000e+00	-2.480226e+02	1.612530e-01	0	0
2075234	2.143000e+00	-2.506495e+02	-1.780089e-01	0	0
2077188	2.143000e+00	-2.382026e+02	-2.728754e-01	0	0
2079141	2.143000e+00	-2.293973e+02	-2.317431e-01	0	0
2081094	2.143000e+00	-2.294919e+02	-3.146354e-01	0	0
2083047	2.143000e+00	-2.217809e+02	-2.305546e-02	0	0
2085000	2.143000e+00	-2.212158e+02	-1.105335e+00	0	0
2086953	2.143000e+00	-2.284579e+02	4.500222e+00	0	0
2088906	2.142370e+00	-2.229429e+02	2.494344e+00	0	0
2090859	2.142630e+00	-2.156796e+02	-1.121026e+00	0	0
2092813	2.142370e+00	-2.087390e+02	4.810531e-01	0	0
2094766	2.142000e+00	-2.126117e+02	-6.528687e+00	0	0
2096719	2.142000e+00	-2.267417e+02	-5.501179e+00	0	0
2098672	2.142000e+00	-2.229595e+02	-2.112610e+00	0	0
2100625	2.142000e+00	-2.200696e+02	-1.116364e+00	0	0
2102578	2.142000e+00	-2.364200e+02	-9.841362e-02	0	0
2104531	2.142000e+00	-2.175551e+02	-2.970135e-01	0	0
2106484	2.142000e+00	-2.088824e+02	-2.174291e-01	0	0
2108438	2.142000e+00	-2.155599e+02	-3.316493e-01	0	0
2110391	2.142000e+00	-2.093474e+02	3.107549e-01	0	0
2112344	2.142000e+00	-2.165121e+02	1.605503e+00	0	0
2114297	2.142000e+00	-2.135259e+02	1.321427e+00	0	0
2116250	2.142000e+00	-2.034384e+02	2.581920e-02	0	0
2118203	2.142000e+00	-2.013097e+02	-3.078916e-01	0	0
2120156	2.142000e+00	-2.075650e+02	-2.324801e-01	0	0
2122109	2.142000e+00	-2.175033e+02	-2.524408e-01	0	0
2124063	2.142000e+00	-2.296122e+02	-2.468257e-01	0	0
2126016	2.142000e+00	-2.201633e+02	-2.481422e-01	0	0
2127969	2.142000e+00	-2.068354e+02	-2.472853e-01	0	0
2129922	2.142000e+00	-2.053166e+02	-2.481852e-01	0	0
2131875	2.142000e+00	-1.993763e+02	-2.442202e-01	0	0
2133828	2.142000e+00	-2.011961e+02	-2.579472e-01	0	0
2135781	2.142000e+00	-2.135865e+02	-1.731953e-01	0	0
2137734	2.142000e+00	-2.127686e+02	-3.962749e-02	0	0
2139688	2.142000e+00	-2.251432e+02	1.612851e-02	0	0
2141641	2.142000e+00	-2.351582e+02	-9.378137e-03	0	0
2143594	2.142000e+00	-2.308324e+02	-1.508626e-01	0	0
2145547	2.142000e+00	-2.134369e+02	-2.423810e-01	0	0
2147500	2.142000e+00	-2.058419e+02	-2.457906e-01	0	0
2149453	2.142000e+00	-2.061020e+02	-2.451518e-01	0	0
2151406	2.142000e+00	-1.986652e+02	-2.450234e-01	0	0
2153359	2.142000e+00	-2.089723e+02	-2.448333e-01	0	0
2155313	2.142000e+00	-2.304060e+02	-2.443689e-01	0	0
2157266	2.142000e+00	-2.286687e+02	-2.450521e-01	0	0
2159219	2.142000e+00	-2.147864e+02	-2.414088e-01	0	0
2161172	2.142000e+00	-2.103587e+02	-2.539135e-01	0	0
2163125	2.142000e+00	-2.093904e+02	-2.061420e-01	0	0
2165078	2.142000e+00	-2.070120e+02	-3.833152e-01	0	0
2167031	2.142000e+00	-1.992566e+02	5.423400e-01	0	0
2168984	2.142000e+00	-1.992904e+02	2.101984e-01	0	0
2170938	2.142000e+00	-1.943780e+02	-4.088643e-01	0	0
2172891	2.142000e+00	-1.949264e+02	2.040726e-02	0	0
2174844	2.142000e+00	-1.991326e+02	-1.567677e+00	0	0
2176797	2.142000e+00	-2.097392e+02	-9.654518e-01	0	0
2178750	2.142000e+00	-2.043890e+02	-7.035244e-02	0	0
2180703	2.142000e+00	-2.106037e+02	-2.873485e-01	0	0
2182656	2.142000e+00	-2.312396e+02	-2.288916e-01	0	0
2184609	2.142000e+00	-2.316112e+02	-2.442319e-01	0	0
2186563	2.142000e+00	-2.376400e+02	-2.397993e-01	0	0
2188516	2.142000e+00	-2.498069e+02	-2.406598e-01	0	0
2190469	2.142000e+00	-2.543033e+02	-2.401011e-01	0	0
2192422	2.142000e+00	-2.355609e+02	-2.399205e-01	0	0
2194375	2.142000e+00	-2.521100e+02	-2.396364e-01	0	0
2196328	2.142000e+00	-2.479820e+02	-2.393778e-01	0	0
2198281	2.142000e+00	-2.361606e+02	-2.391102e-01	0	0
2200234	2.142000e+00	-2.349423e+02	-2.388428e-01	0	0
2202188	2.142000e+00	-2.203697e+02	-2.385731e-01	0	0
2204141	2.142000e+00	-2.267820e+02	-2.383019e-01	0	0
2206094	2.142000e+00	-2.432608e+02	-2.380289e-01	0	0
2208047	2.142000e+00	-2.299303e+02	-2.377543e-01	0	0
2210000	2.142000e+00	-2.120257e+02	-2.374779e-01	0	0
2211953	2.142000e+00	-2.104157e+02	-2.372002e-01	0	0
2213906	2.142000e+00	-2.087742e+02	-2.369189e-01	0	0
2215859	2.142000e+00	-2.106855e+02	-2.366431e-01	0	0
2217813	2.142000e+00	-2.171615e+02	-2.363388e-01	0	0
2219766	2.142000e+00	-2.427072e+02	-2.361324e-01	0	0
2221719	2.142000e+00	-2.521732e+02	-2.355534e-01	0	0
2223672	2.142000e+00	-2.710548e+02	-2.363566e-01	0	0
2225625	2.142000e+00	-2.593305e+02	-2.319936e-01	0	0
2227578	2.141363e+00	-2.424250e+02	-2.469029e-01	0	0
2229531	2.141637e+00	-2.285926e+02	-1.898799e-01	0	0
2231484	2.142000e+00	-2.244523e+02	-4.013014e-01	0	0
2233438	2.141362e+00	-2.147052e+02	3.890625e-01	0	0
2235391	2.141638e+00	-2.235525e+02	-3.745918e+00	0	0
2237344	2.141362e+00	-2.278243e+02	-2.143714e+00	0	0
2239297	2.141638e+00	-2.234908e+02	2.429586e-01	0	0
2241250	2.142000e+00	-2.328227e+02	-4.437412e-01	0	0
2243203	2.141362e+00	-2.398208e+02	1.350915e-01	0	0
2245156	2.141000e+00	-2.352319e+02	-1.491756e+00	0	0
2247109	2.141000e+00	-2.260518e+02	6.832998e+00	0	0
2249063	2.141000e+00	-2.148048e+02	3.672627e+00	0	0
2251016	2.141000e+00	-2.102698e+02	-1.431214e+00	0	0
2252969	2.141000e+00	-2.172765e+02	1.098684e+00	0	0
2254922	2.141000e+00	-2.081672e+02	-6.411142e+00	0	0
2256875	2.141000e+00	-2.214476e+02	-3.385839e+00	0	0
2258828	2.141000e+00	-2.101731e+02	-1.535339e-01	0	0
2260781	2.141000e+00	-2.120633e+02	-1.765640e+00	0	0
2262734	2.141000e+00	-2.043898e+02	-5.328590e-01	0	0
2264688	2.141000e+00	-1.701735e+02	-1.616594e-01	0	0
2266641	2.141000e+00	-1.373945e+02	-2.482202e-01	0	0
2268594	2.141000e+00	-1.146142e+02	-2.178665e-01	0	0
2270547	2.141000e+00	-9.225540e+01	-2.507730e-01	0	0
2272500	2.141000e+00	-7.811802e+01	-6.115985e-02	0	0
2274453	2.141000e+00	-8.191489e+01	4.061353e-01	0	0
2276406	2.141000e+00	-8.413271e+01	5.873128e-03	0	0
2278359	2.141000e+00	-8.380366e+01	-2.763806e-01	0	0
2280313	2.141000e+00	-8.493361e+01	-2.308100e-01	0	0
2282266	2.141000e+00	-8.785928e+01	-9.176291e-02	0	0
2284219	2.141000e+00	-8.307195e+01	2.635778e-01	0	0
2286172	2.141000e+00	-7.383492e+01	5.921278e-01	0	0
2288125	2.141000e+00	-6.492798e+01	8.563099e-01	0	0
2290078	2.141000e+00	-3.737485e+01	1.065537e+00	0	0
2292031	2.141000e+00	-1.898067e+01	1.212839e+00	0	0
2293984	2.141000e+00	-2.677066e+01	1.284578e+00	0	0
2295938	2.141000e+00	-3.550190e+01	1.270370e+00	0	0
2297891	2.141000e+00	-2.322592e+01	1.167164e+00	0	0
2299844	2.141000e+00	-4.596427e+00	9.732331e-01	0	0
2301797	2.141000e+00	1.221785e+01	6.852421e-01	0	0
2303750	2.141000e+00	1.578289e+01	3.078638e-01	0	0
2305703	2.141000e+00	8.461392e+00	-1.205855e-01	0	0
2307656	2.141000e+00	-1.511605e+00	-2.504375e-01	0	0
2309609	2.141000e+00	9.843217e-02	-1.897439e-01	0	0
2311563	2.141000e+00	9.841623e+00	-3.177633e-01	0	0
2313516	2.141000e+00	3.023844e+00	1.357800e-01	0	0
2315469	2.141000e+00	2.513682e+00	-2.240498e+00	0	0
2317422	2.141000e+00	-5.448093e+00	-1.296669e+00	0	0
2319375	2.141000e+00	1.410456e+00	5.027613e-02	0	0
2321328	2.141000e+00	-4.342283e+00	-3.402888e-01	0	0
2323281	2.141000e+00	-2.291889e+01	-3.168872e-03	0	0
2325234	2.141000e+00	-4.670237e+01	-9.588905e-01	0	0
2327188	2.141000e+00	-7.643537e+01	3.963006e+00	0	0
2329141	2.141000e+00	-9.971943e+01	1.912567e+00	0	0
2331094	2.141000e+00	-1.230530e+02	-1.533409e+00	0	0
2333047	2.141000e+00	-1.254755e+02	-4.466038e-01	0	0
2335000	2.141000e+00	-1.314999e+02	-5.668578e+00	0	0
2336953	2.141000e+00	-1.418998e+02	-3.900690e+00	0	0
2338906	2.141000e+00	-1.611836e+02	-1.236257e+00	0	0
2340859	2.141000e+00	-1.818067e+02	-1.562353e+00	0	0
2342813	2.141000e+00	-1.937373e+02	-7.031851e-01	0	0
2344766	2.141000e+00	-1.986344e+02	-3.537757e-01	0	0
2346719	2.141000e+00	-2.015449e+02	2.112207e-01	0	0
2348672	2.141000e+00	-1.986904e+02	-1.009810e-03	0	0
2350625	2.141000e+00	-2.011377e+02	-2.638933e-01	0	0
2352578	2.141000e+00	-2.130113e+02	-1.993664e-01	0	0
2354531	2.141000e+00	-2.299351e+02	-2.161559e-01	0	0
2356484	2.141000e+00	-2.387818e+02	-2.111574e-01	0	0
2358438	2.141000e+00	-2.457969e+02	-2.119940e-01	0	0
2360391	2.141000e+00	-2.482301e+02	-2.112662e-01	0	0
2362344	2.141000e+00	-2.369598e+02	-2.109554e-01	0	0
2364297	2.141000e+00	-2.372523e+02	-2.105311e-01	0	0
2366250	2.141000e+00	-2.384075e+02	-2.101353e-01	0	0
2368203	2.141000e+00	-2.479380e+02	-2.097301e-01	0	0
2370156	2.141000e+00	-2.514585e+02	-2.093256e-01	0	0
2372109	2.141000e+00	-2.549797e+02	-2.089191e-01	0	0
2374063	2.140354e+00	-2.600550e+02	-2.085110e-01	0	0
2376016	2.140646e+00	-2.596236e+02	-2.081019e-01	0	0
2377969	2.141000e+00	-2.607700e+02	-2.076907e-01	0	0
2379922	2.140354e+00	-2.593629e+02	-2.072806e-01	0	0
2381875	2.140646e+00	-2.658178e+02	-2.068598e-01	0	0
2383828	2.140354e+00	-2.794132e+02	-2.064720e-01	0	0
2385781	2.140000e+00	-2.746742e+02	-2.059545e-01	0	0
2387734	2.140000e+00	-2.779386e+02	-2.059145e-01	0	0
2389688	2.140000e+00	-2.669282e+02	-2.040855e-01	0	0
2391641	2.140000e+00	-2.635036e+02	-2.089255e-01	0	0
2393594	2.140000e+00	-2.624845e+02	-1.888714e-01	0	0
2395547	2.140000e+00	-2.693044e+02	-2.932516e-01	0	0
2397500	2.140000e+00	-2.717150e+02	-2.562635e-01	0	0
2399453	2.140000e+00	-2.793682e+02	-1.711989e-01	0	0
2401406	2.140000e+00	-2.785756e+02	-2.825699e-01	0	0
2403359	2.140000e+00	-2.861518e+02	8.555849e-02	0	0
2405313	2.140000e+00	-2.997994e+02	-1.272830e+00	0	0
2407266	2.140000e+00	-2.844637e+02	5.942055e+00	0	0
2409219	2.140000e+00	-2.801869e+02	3.081802e+00	0	0
2411172	2.140000e+00	-2.584684e+02	-1.286615e+00	0	0
2413125	2.140000e+00	-2.521775e+02	1.208585e+00	0	0
2415078	2.140000e+00	-2.533997e+02	-7.151019e+00	0	0
2417031	2.140000e+00	-2.563967e+02	-3.760314e+00	0	0
2418984	2.140000e+00	-2.661683e+02	6.638463e-01	0	0
2420938	2.140000e+00	-2.880784e+02	-4.745873e-01	0	0
2422891	2.140000e+00	-3.245234e+02	4.594684e-02	0	0
2424844	2.140000e+00	-3.441011e+02	-8.963771e-01	0	0
2426797	2.140000e+00	-3.436419e+02	3.723407e+00	0	0
2428750	2.140000e+00	-3.245330e+02	1.832266e+00	0	0
2430703	2.140000e+00	-2.646801e+02	-7.091918e-01	0	0
2432656	2.140000e+00	-1.903824e+02	4.641231e-02	0	0
2434609	2.140000e+00	-9.176785e+01	-8.760898e-01	0	0
2436563	2.140000e+00	2.621078e+00	-5.180914e-01	0	0
2438516	2.140000e+00	1.166847e+02	-1.172199e-01	0	0
2440469	2.140000e+00	2.651393e+02	-2.144621e-01	0	0
2442422	2.140000e+00	5.069703e+02	-1.878317e-01	0	0
2444375	2.140000e+00	7.636665e+02	-1.943874e-01	0	0
2446328	2.140000e+00	1.035192e+03	-1.920502e-01	0	0
2448281	2.140000e+00	1.321748e+03	-1.920939e-01	0	0
2450234	2.140000e+00	1.559552e+03	-1.914984e-01	0	0
2452188	2.140000e+00	1.760331e+03	-1.910712e-01	0	0
2454141	2.140000e+00	1.751886e+03	-1.906013e-01	0	0
2456094	2.140000e+00	1.638121e+03	-1.901269e-01	0	0
2458047	2.140000e+00	1.416469e+03	-1.897055e-01	0	0
2460000	2.140000e+00	1.109600e+03	-1.890690e-01	0	0
2461953	2.140000e+00	8.540490e+02	-1.892323e-01	0	0
2463906	2.140000e+00	6.348721e+02	-1.864038e-01	0	0
2465859	2.140000e+00	4.740466e+02	-1.947349e-01	0	0
2467813	2.140000e+00	2.150849e+02	-1.371937e-01	0	0
2469766	2.140000e+00	-6.844753e+01	-4.003044e-02	0	0
2471719	2.140000e+00	-2.281086e+02	-9.096370e-02	0	0
2473672	2.140000e+00	-3.070659e+02	-1.765371e-01	0	0
2475625	2.140000e+00	-3.350851e+02	-1.864443e-01	0	0
2477578	2.140000e+00	-3.337306e+02	-1.878565e-01	0	0
2479531	2.140000e+00	-3.046981e+02	-1.717622e-01	0	0
2481484	2.140000e+00	-2.834140e+02	-2.318461e-01	0	0
2483438	2.140000e+00	-2.633640e+02	-4.752485e-03	0	0
2485391	2.140000e+00	-2.376226e+02	-8.501115e-01	0	0
2487344	2.140000e+00	-2.184523e+02	3.674531e+00	0	0
2489297	2.140000e+00	-2.055965e+02	1.845067e+00	0	0
2491250	2.140000e+00	-1.940813e+02	-8.775148e-01	0	0
2493203	2.140000e+00	-1.965447e+02	7.843808e-01	0	0
2495156	2.140000e+00	-1.837153e+02	-5.057364e+00	0	0
2497109	2.140000e+00	-1.863097e+02	-2.630866e+00	0	0
2499063	2.140000e+00	-2.034081e+02	4.142058e-01	0	0
2501016	2.140000e+00	-2.033556e+02	-3.671263e-01	0	0
2502969	2.140000e+00	-2.064463e+02	-2.021873e-02	0	0
2504922	2.140000e+00	-2.187753e+02	-6.236218e-01	0	0
2506875	2.140000e+00	-2.151975e+02	2.334599e+00	0	0
2508828	2.139347e+00	-2.048006e+02	1.090573e+00	0	0
2510781	2.139653e+00	-1.909572e+02	-4.803937e-01	0	0
2512734	2.140000e+00	-1.715830e+02	-9.472198e-02	0	0
2514688	2.140000e+00	-1.676483e+02	-1.973831e-01	0	0
2516641	2.140000e+00	-1.777312e+02	-1.692715e-01	0	0
2518594	2.140000e+00	-1.759647e+02	-1.761641e-01	0	0
2520547	2.140000e+00	-1.821176e+02	-1.736769e-01	0	0
2522500	2.140000e+00	-1.961759e+02	-1.737012e-01	0	0
2524453	2.140000e+00	-1.935278e+02	-1.730511e-01	0	0
2526406	2.139346e+00	-1.962614e+02	-1.725803e-01	0	0
2528359	2.139654e+00	-1.980332e+02	-1.720599e-01	0	0
2530313	2.140000e+00	-2.019452e+02	-1.715511e-01	0	0
2532266	2.140000e+00	-1.935940e+02	-1.710379e-01	0	0
2534219	2.140000e+00	-1.869392e+02	-1.705245e-01	0	0
2536172	2.139346e+00	-1.845537e+02	-1.700097e-01	0	0
2538125	2.139000e+00	-1.712068e+02	-1.694938e-01	0	0
2540078	2.139654e+00	-1.663148e+02	-1.689767e-01	0	0
2542031	2.139346e+00	-1.573175e+02	-1.684586e-01	0	0
2543984	2.139000e+00	-1.636732e+02	-1.679391e-01	0	0
2545938	2.139655e+00	-1.654579e+02	-1.674189e-01	0	0
2547891	2.139345e+00	-1.687607e+02	-1.668951e-01	0	0
2549844	2.139000e+00	-1.745479e+02	-1.663806e-01	0	0
2551797	2.139000e+00	-1.655225e+02	-1.658259e-01	0	0
2553750	2.139000e+00	-1.501148e+02	-1.654160e-01	0	0
2555703	2.139000e+00	-1.431921e+02	-1.644604e-01	0	0
2557656	2.139000e+00	-1.502602e+02	-1.655359e-01	0	0
2559609	2.139000e+00	-1.543661e+02	-1.590265e-01	0	0
2561563	2.139000e+00	-1.624793e+02	-1.808144e-01	0	0
2563516	2.139000e+00	-1.378312e+02	-9.699832e-02	0	0
2565469	2.139000e+00	-1.290266e+02	-4.072870e-01	0	0
2567422	2.139000e+00	-1.269273e+02	1.270806e+00	0	0
2569375	2.139000e+00	-1.241418e+02	6.083942e-01	0	0
2571328	2.139000e+00	-1.145343e+02	-5.207416e-01	0	0
2573281	2.139000e+00	-1.056156e+02	5.858645e-01	0	0
2575234	2.139000e+00	-1.219291e+02	-4.240555e+00	0	0
2577188	2.139000e+00	-1.259644e+02	-2.180422e+00	0	0
2579141	2.139000e+00	-1.222281e+02	3.458265e-01	0	0
2581094	2.139000e+00	-1.219563e+02	-3.619820e-01	0	0
2583047	2.139000e+00	-1.454402e+02	1.549995e-01	0	0
2585000	2.139000e+00	-1.533479e+02	-1.201916e+00	0	0
2586953	2.139000e+00	-1.359267e+02	5.888499e+00	0	0
2588906	2.139000e+00	-1.262856e+02	2.919203e+00	0	0
2590859	2.139000e+00	-9.695133e+01	-1.151091e+00	0	0
2592813	2.139000e+00	-8.587510e+01	1.063617e+00	0	0
2594766	2.139000e+00	-7.618366e+01	-6.183229e+00	0	0
2596719	2.139000e+00	-6.604392e+01	-3.093295e+00	0	0
2598672	2.139000e+00	-6.608817e+01	5.633630e-01	0	0
2600625	2.139000e+00	-6.367384e+01	-3.812684e-01	0	0
2602578	2.139000e+00	-7.327429e+01	4.740957e-02	0	0
2604531	2.139000e+00	-8.065014e+01	-7.194476e-01	0	0
2606484	2.139000e+00	-6.146333e+01	3.088123e+00	0	0
2608438	2.139000e+00	-6.945094e+01	1.445834e+00	0	0
2610391	2.139000e+00	-6.559205e+01	-5.492128e-01	0	0
2612344	2.139000e+00	-4.905408e+01	4.485026e-03	0	0
2614297	2.139000e+00	-5.986329e+01	-5.525440e-01	0	0
2616250	2.139000e+00	-5.768216e+01	-3.485241e-01	0	0
2618203	2.139000e+00	-7.461937e+01	-1.529172e-01	0	0
2620156	2.139000e+00	-3.831954e+01	-2.142196e-01	0	0
2622109	2.139000e+00	-1.879041e+01	-2.111813e-01	0	0
2624063	2.139000e+00	-1.691837e+01	-2.251168e-01	0	0
2626016	2.139000e+00	-2.638079e+00	-2.342439e-01	0	0
2627969	2.139000e+00	4.581757e+00	-2.444056e-01	0	0
2629922	2.139000e+00	2.281515e+01	-2.540522e-01	0	0
2631875	2.139000e+00	2.673694e+01	-2.635918e-01	0	0
2633828	2.139000e+00	2.605435e+01	-2.729843e-01	0	0
2635781	2.139000e+00	3.122424e+01	-2.820248e-01	0	0
2637734	2.139000e+00	2.441913e+01	-2.916151e-01	0	0
2639688	2.139000e+00	1.923318e+01	-2.983806e-01	0	0
2641641	2.139000e+00	3.446352e+01	-3.147061e-01	0	0
2643594	2.139000e+00	4.891866e+01	-2.940382e-01	0	0
2645547	2.139000e+00	4.770181e+01	-4.100789e-01	0	0
2647500	2.139000e+00	4.706434e+01	1.731250e-01	0	0
2649453	2.139000e+00	6.451296e+01	-4.495551e-02	0	0
2651406	2.139000e+00	9.431454e+01	-5.686797e-01	0	0
2653359	2.139000e+00	1.468756e+02	2.619801e-01	0	0
2655313	2.139000e+00	1.359366e+02	-3.883960e+00	0	0
2657266	2.139000e+00	1.193682e+02	-2.081811e+00	0	0
2659219	2.139000e+00	1.390302e+02	6.082602e-02	0	0
2661172	2.139000e+00	1.357353e+02	-5.745093e-01	0	0
2663125	2.139000e+00	1.172064e+02	-3.866208e-02	0	0
2665078	2.139000e+00	1.291485e+02	-1.580844e+00	0	0
2667031	2.139000e+00	1.547102e+02	6.558358e+00	0	0
2668984	2.139000e+00	1.755305e+02	3.067614e+00	0	0
2670938	2.139000e+00	2.085329e+02	-1.538655e+00	0	0
2672891	2.139000e+00	2.219615e+02	1.002275e+00	0	0
2674844	2.139000e+00	2.389208e+02	-7.485276e+00	0	0
2676797	2.139000e+00	2.477932e+02	-3.795571e+00	0	0
2678750	2.139000e+00	2.516152e+02	4.053313e-01	0	0
2680703	2.139000e+00	2.503431e+02	-6.872285e-01	0	0
2682656	2.139000e+00	2.626384e+02	-1.950595e-01	0	0
2684609	2.139000e+00	2.796556e+02	-1.087421e+00	0	0
2686563	2.139000e+00	2.856375e+02	3.360559e+00	0	0
2688516	2.139000e+00	2.950051e+02	1.399759e+00	0	0
2690469	2.139000e+00	3.203426e+02	-9.031988e-01	0	0
2692422	2.139000e+00	3.567649e+02	-2.043106e-01	0	0
2694375	2.139000e+00	3.848426e+02	-1.127141e+00	0	0
2696328	2.139000e+00	3.916685e+02	-7.446596e-01	0	0
2698281	2.139000e+00	3.994006e+02	-3.608253e-01	0	0
2700234	2.139000e+00	4.035713e+02	-4.535639e-01	0	0
2702188	2.139000e+00	4.059788e+02	-4.204469e-01	0	0
2704141	2.139000e+00	4.151748e+02	-4.094948e-01	0	0
2706094	2.138336e+00	4.344644e+02	-3.798857e-01	0	0
2708047	2.138000e+00	4.371983e+02	-3.431360e-01	0	0
2710000	2.138000e+00	4.487513e+02	-2.964110e-01	0	0
2711953	2.138000e+00	4.549783e+02	-2.420847e-01	0	0
2713906	2.138664e+00	4.613804e+02	-1.760458e-01	0	0
2715859	2.139000e+00	4.563578e+02	-1.256164e-01	0	0
2717813	2.139000e+00	4.362834e+02	-1.159256e-01	0	0
2719766	2.138335e+00	4.300726e+02	-1.174017e-01	0	0
2721719	2.138000e+00	4.109344e+02	-1.161416e-01	0	0
2723672	2.138000e+00	4.020084e+02	-1.160513e-01	0	0
2725625	2.138665e+00	3.764355e+02	-1.140126e-01	0	0
2727578	2.138335e+00	3.469240e+02	-1.185928e-01	0	0
2729531	2.138665e+00	3.072267e+02	-9.864128e-02	0	0
2731484	2.138335e+00	2.928775e+02	-1.701909e-01	0	0
2733438	2.138000e+00	2.738267e+02	9.967472e-02	0	0
2735391	2.138000e+00	2.412721e+02	-1.368439e+00	0	0
2737344	2.138000e+00	2.089565e+02	-7.162515e-01	0	0
2739297	2.138000e+00	1.714584e+02	5.781918e-02	0	0
2741250	2.138000e+00	1.406035e+02	-2.389515e-01	0	0
2743203	2.138000e+00	1.209119e+02	2.367999e-01	0	0
2745156	2.138000e+00	9.837347e+01	-1.365714e+00	0	0
2747109	2.138000e+00	7.838594e+01	7.309562e+00	0	0
2749063	2.138000e+00	5.068324e+01	3.328768e+00	0	0
2751016	2.138000e+00	1.875233e+01	-1.698592e+00	0	0
2752969	2.138000e+00	1.105781e+01	8.264044e-01	0	0
2754922	2.138000e+00	-9.318976e+00	-8.375567e+00	0	0
2756875	2.138000e+00	-3.067767e+01	-4.465965e+00	0	0
2758828	2.138000e+00	-3.421100e+01	-1.596425e-01	0	0
2760781	2.138000e+00	-5.427875e+01	-1.321544e+00	0	0
2762734	2.138000e+00	-6.481679e+01	-9.687392e-01	0	0
2764688	2.138000e+00	-8.304380e+01	-1.325085e+00	0	0
2766641	2.138000e+00	-1.117530e+02	6.906334e-01	0	0
2768594	2.138000e+00	-1.330623e+02	1.652708e-01	0	0
2770547	2.138000e+00	-1.136578e+02	-3.783314e-01	0	0
2772500	2.138000e+00	-1.130644e+02	2.098978e-01	0	0
2774453	2.138000e+00	-1.134940e+02	2.789336e-01	0	0
2776406	2.138000e+00	-1.095171e+02	3.223316e-01	0	0
2778359	2.138000e+00	-1.314801e+02	3.570269e-01	0	0
2780313	2.138000e+00	-1.297619e+02	3.811233e-01	0	0
2782266	2.138000e+00	-1.389163e+02	3.949278e-01	0	0
2784219	2.138000e+00	-1.496148e+02	3.992607e-01	0	0
2786172	2.138000e+00	-1.495011e+02	3.907126e-01	0	0
2788125	2.138000e+00	-1.437619e+02	3.821624e-01	0	0
2790078	2.138000e+00	-1.496316e+02	3.255736e-01	0	0
2792031	2.138000e+00	-1.350349e+02	4.911968e-01	0	0
2793984	2.138000e+00	-1.231042e+02	8.296426e-01	0	0
2795938	2.138000e+00	-1.315911e+02	1.129198e+00	0	0
2797891	2.138000e+00	-1.410861e+02	1.371100e+00	0	0
2799844	2.138000e+00	-1.385204e+02	1.560790e+00	0	0
2801797	2.138000e+00	-1.612280e+02	1.676417e+00	0	0
2803750	2.138000e+00	-1.603967e+02	1.792501e+00	0	0
2805703	2.138000e+00	-1.658555e+02	1.822981e+00	0	0
2807656	2.138000e+00	-1.666194e+02	2.175172e+00	0	0
2809609	2.138000e+00	-1.607975e+02	1.914207e+00	0	0
2811563	2.138000e+00	-1.614688e+02	1.121453e+00	0	0
2813516	2.138000e+00	-1.522946e+02	1.791028e+00	0	0
2815469	2.138000e+00	-1.431411e+02	-4.631631e+00	0	0
2817422	2.138000e+00	-1.517840e+02	-2.370304e+00	0	0
2819375	2.138000e+00	-1.661718e+02	5.000148e-01	0	0
2821328	2.138000e+00	-1.620355e+02	-3.532723e-01	0	0
2823281	2.138000e+00	-1.811779e+02	4.077179e-01	0	0
2825234	2.138000e+00	-1.957812e+02	-1.779101e+00	0	0
2827188	2.138000e+00	-1.780263e+02	9.986730e+00	0	0
2829141	2.138000e+00	-1.728055e+02	4.558928e+00	0	0
2831094	2.138000e+00	-1.661869e+02	-2.345353e+00	0	0
2833047	2.138000e+00	-1.622955e+02	5.524527e-01	0	0
2835000	2.138000e+00	-1.841852e+02	-1.143379e+01	0	0
2836953	2.138000e+00	-1.908558e+02	-6.383539e+00	0	0
2838906	2.138000e+00	-1.840329e+02	-1.728396e+00	0	0
2840859	2.138000e+00	-1.756599e+02	-3.691783e+00	0	0
2842813	2.138000e+00	-1.679259e+02	-2.177279e+00	0	0
2844766	2.138000e+00	-1.556850e+02	-2.590993e+00	0	0
2846719	2.138000e+00	-1.597103e+02	1.458223e+00	0	0
2848672	2.138000e+00	-1.561892e+02	-3.649738e-01	0	0
2850625	2.138000e+00	-1.607043e+02	-2.309953e+00	0	0
2852578	2.138000e+00	-1.532039e+02	-1.846301e+00	0	0
2854531	2.138000e+00	-1.435825e+02	-1.469077e+00	0	0
2856484	2.138000e+00	-1.522460e+02	-8.624048e-01	0	0
2858438	2.138000e+00	-1.631595e+02	-6.108073e-01	0	0
2860391	2.138000e+00	-1.582637e+02	-4.307069e-01	0	0
2862344	2.138000e+00	-1.620921e+02	-3.366856e-01	0	0
2864297	2.138000e+00	-1.693959e+02	-3.531554e-01	0	0
2866250	2.138000e+00	-1.660247e+02	-4.994679e-01	0	0
2868203	2.138000e+00	-1.485403e+02	-9.432504e-01	0	0
2870156	2.138000e+00	-1.485537e+02	-1.648134e+00	0	0
2872109	2.138000e+00	-1.317135e+02	-1.835140e+00	0	0
2874063	2.138000e+00	-1.279756e+02	-1.780669e+00	0	0
2876016	2.138000e+00	-1.472012e+02	-1.777626e+00	0	0
2877969	2.138000e+00	-1.223747e+02	-1.752246e+00	0	0
2879922	2.138000e+00	-1.207752e+02	-1.719380e+00	0	0
2881875	2.138000e+00	-1.386217e+02	-1.575248e+00	0	0
2883828	2.138000e+00	-1.276054e+02	-1.452575e+00	0	0
2885781	2.138000e+00	-1.223452e+02	-1.331718e+00	0	0
2887734	2.138000e+00	-1.325546e+02	-1.632176e+00	0	0
2889688	2.138000e+00	-1.225323e+02	-1.515900e+00	0	0
2891641	2.138000e+00	-1.023279e+02	-1.520852e+00	0	0
2893594	2.138000e+00	-9.866723e+01	-7.731800e-01	0	0
2895547	2.138000e+00	-9.622726e+01	-4.453834e+00	0	0
2897500	2.138000e+00	-9.925672e+01	-2.593026e+00	0	0
2899453	2.138000e+00	-1.119535e+02	-6.033011e-01	0	0
2901406	2.138000e+00	-1.181766e+02	-1.073235e+00	0	0
2903359	2.138000e+00	-1.262033e+02	-3.227471e-01	0	0
2905313	2.138000e+00	-1.185820e+02	-2.095214e+00	0	0
2907266	2.138000e+00	-1.295718e+02	8.430390e+00	0	0
2909219	2.138000e+00	-1.152719e+02	3.834293e+00	0	0
2911172	2.138000e+00	-1.178436e+02	-1.588408e+00	0	0
2913125	2.138000e+00	-1.097860e+02	1.710555e+00	0	0
2915078	2.138000e+00	-1.025113e+02	-9.462424e+00	0	0
2917031	2.138000e+00	-9.417139e+01	-4.269771e+00	0	0
2918984	2.138000e+00	-8.557993e+01	9.855559e-01	0	0
2920938	2.138000e+00	-1.088676e+02	-3.747512e-01	0	0
2922891	2.138000e+00	-1.283944e+02	2.127484e-01	0	0
2924844	2.138000e+00	-1.573683e+02	-7.746106e-01	0	0
2926797	2.138000e+00	-1.657958e+02	4.213085e+00	0	0
2928750	2.138000e+00	-1.560698e+02	1.875142e+00	0	0
2930703	2.138000e+00	-1.253393e+02	-5.141731e-01	0	0
2932656	2.138000e+00	-1.261686e+02	7.882314e-02	0	0
2934609	2.138000e+00	-1.238662e+02	-7.917782e-02	0	0
2936563	2.138000e+00	-1.132825e+02	-3.599968e-02	0	0
2938516	2.138000e+00	-1.037489e+02	-4.668896e-02	0	0
2940469	2.138000e+00	-1.122948e+02	-4.296072e-02	0	0
2942422	2.138000e+00	-1.237749e+02	-4.309435e-02	0	0
2944375	2.138000e+00	-1.013554e+02	-4.219280e-02	0	0
2946328	2.138000e+00	-1.106188e+02	-4.156799e-02	0	0
2948281	2.138000e+00	-1.214757e+02	-4.086849e-02	0	0
2950234	2.138000e+00	-1.144379e+02	-4.018833e-02	0	0
2952188	2.138000e+00	-9.790834e+01	-3.950246e-02	0	0
2954141	2.138000e+00	-1.004875e+02	-3.881633e-02	0	0
2956094	2.138000e+00	-1.064008e+02	-3.813536e-02	0	0
2958047	2.138000e+00	-1.152530e+02	-3.743171e-02	0	0
2960000	2.138000e+00	-1.078316e+02	-3.681100e-02	0	0
2961953	2.138000e+00	-1.083188e+02	-3.587861e-02	0	0
2963906	2.138000e+00	-1.417967e+02	-3.610739e-02	0	0
2965859	2.138000e+00	-1.276668e+02	-3.200078e-02	0	0
2967813	2.138000e+00	-1.150889e+02	-4.406758e-02	0	0
2969766	2.138000e+00	-1.190190e+02	4.219119e-03	0	0
2971719	2.138000e+00	-9.566498e+01	-1.727231e-01	0	0
2973672	2.138000e+00	-1.059257e+02	4.908681e-01	0	0
2975625	2.138000e+00	-1.344575e+02	-3.201586e+00	0	0
2977578	2.138000e+00	-1.288959e+02	-1.426983e+00	0	0
2979531	2.138000e+00	-1.309816e+02	4.218497e-01	0	0
2981484	2.138000e+00	-1.344926e+02	-8.299575e-02	0	0
2983438	2.138000e+00	-1.454425e+02	5.638341e-01	0	0
2985391	2.138000e+00	-1.469604e+02	-1.211151e+00	0	0
2987344	2.138000e+00	-1.405660e+02	8.828609e+00	0	0
2989297	2.138000e+00	-1.157223e+02	4.189487e+00	0	0
2991250	2.138000e+00	-1.009327e+02	-1.007556e+00	0	0
2993203	2.138000e+00	-1.080067e+02	1.940726e+00	0	0
2995156	2.138000e+00	-1.257182e+02	-8.173403e+00	0	0
2997109	2.138000e+00	-1.257729e+02	-3.400424e+00	0	0
2999063	2.138000e+00	-1.203899e+02	1.223206e+00	0	0
3001016	2.138000e+00	-1.145158e+02	3.403378e-02	0	0
3002969	2.138000e+00	-1.047106e+02	4.931873e-01	0	0
3004922	2.138000e+00	-1.159116e+02	-1.842712e-01	0	0
3006875	2.138000e+00	-1.208369e+02	3.120289e+00	0	0
3008828	2.138000e+00	-1.341663e+02	1.524207e+00	0	0
3010781	2.138000e+00	-1.399005e+02	-3.642436e-02	0	0
3012734	2.138000e+00	-1.452505e+02	3.349066e-01	0	0
3014688	2.138000e+00	-1.473433e+02	2.168521e-01	0	0
3016641	2.138000e+00	-1.265706e+02	2.278276e-01	0	0
3018594	2.138000e+00	-1.172204e+02	2.022947e-01	0	0
3020547	2.138000e+00	-1.129230e+02	1.845976e-01	0	0
3022500	2.138000e+00	-1.161803e+02	1.628882e-01	0	0
3024453	2.138000e+00	-1.360659e+02	1.403790e-01	0	0
3026406	2.138000e+00	-1.310155e+02	1.162230e-01	0	0
3028359	2.138000e+00	-1.312547e+02	9.075236e-02	0	0
3030313	2.138000e+00	-1.343504e+02	6.362816e-02	0	0
3032266	2.138000e+00	-1.315451e+02	3.600105e-02	0	0
3034219	2.138000e+00	-1.275361e+02	3.846998e-03	0	0
3036172	2.138000e+00	-1.219429e+02	-9.556323e-03	0	0
3038125	2.138000e+00	-1.099020e+02	-8.929978e-03	0	0
3040078	2.138000e+00	-1.061301e+02	-8.407655e-03	0	0
3042031	2.138000e+00	-1.102794e+02	-7.116225e-03	0	0
3043984	2.138000e+00	-1.250441e+02	-8.594074e-03	0	0
3045938	2.138000e+00	-1.124327e+02	2.353409e-04	0	0
3047891	2.138000e+00	-1.128508e+02	-4.472877e-02	0	0
3049844	2.138000e+00	-8.274626e+01	-2.197663e-02	0	0
3051797	2.138000e+00	-4.115202e+01	5.542509e-04	0	0
3053750	2.138000e+00	-9.733308e+00	-6.152069e-03	0	0
3055703	2.138000e+00	2.297994e+01	3.886559e-03	0	0
3057656	2.138000e+00	2.572786e+01	-2.533943e-02	0	0
3059609	2.138000e+00	4.038438e+01	1.853359e-01	0	0
3061563	2.138000e+00	1.116686e+01	5.536603e-01	0	0
3063516	2.138000e+00	-1.161816e+01	3.313713e-01	0	0
3065469	2.138000e+00	-9.599028e+00	-5.998478e-01	0	0
3067422	2.138000e+00	1.336038e+00	3.433125e+00	0	0
3069375	2.138000e+00	1.103296e+01	1.540269e+00	0	0
3071328	2.138000e+00	1.248814e+01	-5.748200e-01	0	0
3073281	2.138000e+00	3.024007e+01	8.906565e-01	0	0
3075234	2.138000e+00	4.039877e+01	-4.898927e+00	0	0
3077188	2.138000e+00	2.981550e+01	-2.097347e+00	0	0
3079141	2.138000e+00	3.051923e+01	5.222028e-01	0	0
3081094	2.138000e+00	2.471735e+01	-1.768186e-01	0	0
3083047	2.138000e+00	3.172108e+01	1.851563e-01	0	0
3085000	2.138000e+00	4.522789e+01	-5.638069e-01	0	0
3086953	2.138000e+00	7.249350e+01	3.412365e+00	0	0
3088906	2.138000e+00	1.103370e+02	1.483164e+00	0	0
3090859	2.138000e+00	1.459178e+02	-4.163507e-01	0	0
3092813	2.138000e+00	1.336876e+02	3.112368e-01	0	0
3094766	2.138000e+00	1.381524e+02	-1.351967e+00	0	0
3096719	2.138000e+00	1.201209e+02	-5.614380e-01	0	0
3098672	2.138000e+00	1.141968e+02	1.370894e-01	0	0
3100625	2.138000e+00	1.073424e+02	-3.672595e-02	0	0
3102578	2.138000e+00	6.702974e+01	9.838857e-03	0	0
3104531	2.138000e+00	7.017170e+01	-2.636043e-03	0	0
3106484	2.138000e+00	5.208170e+01	7.070745e-04	0	0
3108438	2.138000e+00	3.826718e+01	-1.924130e-04	0	0
3110391	2.138000e+00	4.483641e+01	6.386498e-05	0	0
3112344	2.138000e+00	3.702263e+01	-6.307857e-05	0	0
3114297	2.138000e+00	3.820461e+01	1.884502e-04	0	0
3116250	2.138000e+00	3.105034e+01	-6.906938e-04	0	0
3118203	2.138000e+00	-1.445761e+01	2.574211e-03	0	0
3120156	2.138688e+00	-2.872512e+01	-9.605723e-03	0	0
3122109	2.139000e+00	-4.512518e+01	3.584708e-02	0	0
3124063	2.139000e+00	-5.133620e+01	-1.337214e-01	0	0
3126016	2.139000e+00	-6.687512e+01	8.241642e-01	0	0
3127969	2.139000e+00	-8.343836e+01	3.316713e-01	0	0
3129922	2.139000e+00	-9.859941e+01	-2.483097e-02	0	0
3131875	2.139000e+00	-1.110383e+02	-2.022029e-01	0	0
3133828	2.139000e+00	-1.190430e+02	8.335894e-01	0	0
3135781	2.139000e+00	-1.259885e+02	-5.196056e+00	0	0
3137734	2.139000e+00	-1.517737e+02	-2.210673e+00	0	0
3139688	2.139000e+00	-1.531557e+02	5.663843e-01	0	0
3141641	2.139000e+00	-1.677763e+02	-2.487054e-01	0	0
3143594	2.139000e+00	-1.764196e+02	4.285167e-01	0	0
3145547	2.139000e+00	-1.672568e+02	-1.465321e+00	0	0
3147500	2.139000e+00	-1.897561e+02	9.039905e+00	0	0
3149453	2.139000e+00	-1.906493e+02	3.918195e+00	0	0
3151406	2.139000e+00	-1.820111e+02	-1.295806e+00	0	0
3153359	2.139000e+00	-1.926617e+02	1.593873e+00	0	0
3155313	2.139000e+00	-1.847103e+02	-8.403564e+00	0	0
3157266	2.139000e+00	-1.786891e+02	-3.486730e+00	0	0
3159219	2.139000e+00	-1.903665e+02	8.597786e-01	0	0
3161172	2.139000e+00	-1.909994e+02	-2.524714e-01	0	0
3163125	2.139000e+00	-1.730615e+02	1.502582e-01	0	0
3165078	2.139000e+00	-1.671310e+02	-3.485874e-01	0	0
3167031	2.139000e+00	-1.731830e+02	2.069800e+00	0	0
3168984	2.139000e+00	-1.559796e+02	8.733980e-01	0	0
3170938	2.139000e+00	-1.753854e+02	-2.397024e-01	0	0
3172891	2.139000e+00	-1.657484e+02	2.307549e-01	0	0
3174844	2.139000e+00	-1.820123e+02	6.237788e-02	0	0
3176797	2.139000e+00	-1.926904e+02	-1.991696e-03	0	0
3178750	2.139000e+00	-1.829529e+02	2.196640e-02	0	0
3180703	2.139000e+00	-1.965266e+02	2.391396e-02	0	0
3182656	2.139000e+00	-2.009224e+02	3.175261e-02	0	0
3184609	2.139000e+00	-2.115632e+02	3.800719e-02	0	0
3186563	2.139000e+00	-1.982770e+02	4.468322e-02	0	0
3188516	2.139000e+00	-1.980397e+02	5.123727e-02	0	0
3190469	2.139000e+00	-1.871311e+02	5.781605e-02	0	0
3192422	2.139000e+00	-1.577361e+02	6.438060e-02	0	0
3194375	2.139000e+00	-1.531219e+02	7.094168e-02	0	0
3196328	2.139000e+00	-1.573733e+02	7.749328e-02	0	0
3198281	2.139000e+00	-1.502336e+02	8.404685e-02	0	0
3200234	2.139000e+00	-1.607710e+02	9.056066e-02	0	0
3202188	2.139000e+00	-1.792247e+02	9.719164e-02	0	0
3204141	2.139000e+00	-1.816279e+02	1.033587e-01	0	0
3206094	2.139000e+00	-1.869846e+02	1.112071e-01	0	0
3208047	2.139000e+00	-2.220628e+02	1.127422e-01	0	0
3210000	2.139000e+00	-2.435185e+02	1.377971e-01	0	0
3211953	2.139000e+00	-2.289725e+02	7.503791e-02	0	0
3213906	2.139694e+00	-2.284760e+02	3.399449e-01	0	0
3215859	2.140000e+00	-1.732271e+02	-1.132673e+00	0	0
3217813	2.140000e+00	-1.130116e+02	-3.815390e-01	0	0
3219766	2.140000e+00	-2.955147e+01	3.012830e-01	0	0
3221719	2.140000e+00	7.332497e+01	6.545258e-02	0	0
3223672	2.140000e+00	1.772344e+02	4.086466e-01	0	0
3225625	2.140000e+00	3.797159e+02	-5.950801e-01	0	0
3227578	2.140000e+00	6.659995e+02	6.567766e+00	0	0
3229531	2.140000e+00	9.481763e+02	2.845616e+00	0	0
3231484	2.140000e+00	1.241999e+03	-7.584033e-01	0	0
3233438	2.140000e+00	1.552284e+03	1.567822e+00	0	0
3235391	2.140000e+00	1.821031e+03	-7.360937e+00	0	0
3237344	2.140000e+00	2.004018e+03	-2.862703e+00	0	0
3239297	2.140000e+00	2.002358e+03	9.951649e-01	0	0
3241250	2.140000e+00	1.887950e+03	-5.797766e-02	0	0
3243203	2.140000e+00	1.591563e+03	5.910515e-01	0	0
3245156	2.140000e+00	1.272711e+03	-9.142187e-01	0	0
3247109	2.140000e+00	1.040985e+03	7.407547e+00	0	0
3249063	2.140000e+00	8.384218e+02	3.250667e+00	0	0
3251016	2.140000e+00	5.979013e+02	-7.301717e-01	0	0
3252969	2.140000e+00	2.019168e+02	1.454670e+00	0	0
3254922	2.140000e+00	-1.414553e+02	-6.044961e+00	0	0
3256875	2.140000e+00	-2.596993e+02	-2.077426e+00	0	0
3258828	2.140000e+00	-2.421675e+02	1.070804e+00	0	0
3260781	2.140000e+00	-2.362125e+02	8.352781e-02	0	0
3262734	2.140000e+00	-1.988528e+02	5.255862e-01	0	0
3264688	2.140000e+00	-1.573863e+02	-4.178872e-01	0	0
3266641	2.140000e+00	-1.192113e+02	4.768702e+00	0	0
3268594	2.140000e+00	-1.016983e+02	2.146990e+00	0	0
3270547	2.140000e+00	-7.419783e+01	-2.176245e-01	0	0
3272500	2.140698e+00	-6.424456e+01	7.837189e-01	0	0
3274453	2.140302e+00	-5.907162e+01	-1.843803e+00	0	0
3276406	2.140698e+00	-9.253267e+01	-5.224969e-01	0	0
3278359	2.141000e+00	-9.539879e+01	5.537905e-01	0	0
3280313	2.141000e+00	-8.800630e+01	2.921758e-01	0	0
3282266	2.141000e+00	-1.121554e+02	3.697176e-01	0	0
3284219	2.141000e+00	-1.029547e+02	3.564718e-01	0	0
3286172	2.141000e+00	-1.069708e+02	3.675212e-01	0	0
3288125	2.141000e+00	-9.323881e+01	3.720341e-01	0	0
3290078	2.141000e+00	-9.908269e+01	3.782744e-01	0	0
3292031	2.141000e+00	-8.398495e+01	3.840102e-01	0	0
3293984	2.141000e+00	-7.633170e+01	3.899051e-01	0	0
3295938	2.141000e+00	-7.928324e+01	3.955374e-01	0	0
3297891	2.141000e+00	-9.850545e+01	4.019343e-01	0	0
3299844	2.141000e+00	-1.040349e+02	4.053889e-01	0	0
3301797	2.141000e+00	-1.036866e+02	4.197055e-01	0	0
3303750	2.141000e+00	-9.529037e+01	3.933772e-01	0	0
3305703	2.141000e+00	-9.311013e+01	5.812977e-01	0	0
3307656	2.141000e+00	-9.330925e+01	4.751662e-01	0	0
3309609	2.141000e+00	-9.275308e+01	4.803685e-01	0	0
3311563	2.141000e+00	-6.784616e+01	2.221419e-01	0	0
3313516	2.141000e+00	-5.857428e+01	1.278390e+00	0	0
3315469	2.141000e+00	-7.318390e+01	-4.829743e+00	0	0
3317422	2.141701e+00	-6.568789e+01	-1.659940e+00	0	0
3319375	2.142000e+00	-9.050064e+01	1.012822e+00	0	0
3321328	2.142000e+00	-8.861047e+01	2.188537e-01	0	0
3323281	2.142000e+00	-9.987397e+01	9.251681e-01	0	0
3325234	2.142000e+00	-9.115091e+01	-1.073427e+00	0	0
3327188	2.142000e+00	-6.842810e+01	1.031008e+01	0	0
3329141	2.142000e+00	-7.065582e+01	4.518420e+00	0	0
3331094	2.142000e+00	-5.575082e+01	-8.894534e-01	0	0
3333047	2.142000e+00	-5.059242e+01	2.328898e+00	0	0
3335000	2.142000e+00	-6.343812e+01	-9.540350e+00	0	0
3336953	2.142000e+00	-7.306127e+01	-3.436604e+00	0	0
3338906	2.142000e+00	-7.470268e+01	1.508970e+00	0	0
3340859	2.142000e+00	-8.327711e+01	1.849061e-01	0	0
3342813	2.142000e+00	-6.567360e+01	8.841791e-01	0	0
3344766	2.142000e+00	-6.442625e+01	-5.582370e-01	0	0
3346719	2.142000e+00	-6.605367e+01	7.380547e+00	0	0
3348672	2.142000e+00	-5.175858e+01	3.298509e+00	0	0
3350625	2.142000e+00	-4.397576e+01	-3.049614e-01	0	0
3352578	2.142000e+00	-2.736624e+01	1.423160e+00	0	0
3354531	2.142000e+00	-3.397947e+01	-3.898967e+00	0	0
3356484	2.142703e+00	-5.605633e+01	-1.166846e+00	0	0
3358438	2.143000e+00	-7.016407e+01	9.997817e-01	0	0
3360391	2.143000e+00	-6.316612e+01	4.314176e-01	0	0
3362344	2.143000e+00	-5.436882e+01	7.089639e-01	0	0
3364297	2.143000e+00	-5.988638e+01	1.961428e-01	0	0
3366250	2.143000e+00	-1.853910e+01	2.999460e+00	0	0
3368203	2.143000e+00	-4.647372e+00	1.529364e+00	0	0
3370156	2.143000e+00	1.020312e+01	3.925132e-01	0	0
3372109	2.143000e+00	2.097270e+01	5.532170e-01	0	0
3374063	2.143000e+00	1.916200e+01	1.000105e+00	0	0
3376016	2.143000e+00	1.199162e+01	-2.016306e+00	0	0
3377969	2.143000e+00	-6.169782e+00	-4.194198e-01	0	0
3379922	2.143000e+00	1.253200e+00	8.857852e-01	0	0
3381875	2.143000e+00	6.535669e-01	5.109547e-01	0	0
3383828	2.143000e+00	-2.825489e+00	8.132329e-01	0	0
3385781	2.143705e+00	2.012927e+00	5.688748e-03	0	0
3387734	2.143295e+00	1.449961e+01	4.630837e+00	0	0
3389688	2.143705e+00	2.212503e+01	2.254343e+00	0	0
3391641	2.144000e+00	3.211371e+01	4.421380e-02	0	0
3393594	2.144000e+00	1.272766e+01	1.265444e+00	0	0
3395547	2.144000e+00	2.323628e+01	-3.970034e+00	0	0
3397500	2.144000e+00	2.969395e+01	-1.579414e+00	0	0
3399453	2.144000e+00	3.112019e+01	-5.379253e-02	0	0
3401406	2.144000e+00	3.630361e+01	-1.188837e+00	0	0
3403359	2.144000e+00	3.608200e+01	-1.352911e+00	0	0
3405313	2.144000e+00	3.755982e+01	-2.313147e+00	0	0
3407266	2.144000e+00	4.098453e+01	8.260337e-01	0	0
3409219	2.144000e+00	6.258206e+01	-1.022959e+00	0	0
3411172	2.144000e+00	8.570700e+01	-2.362192e+00	0	0
3413125	2.144000e+00	1.011588e+02	-1.804718e+00	0	0
3415078	2.144000e+00	9.495098e+01	-2.056575e+00	0	0
3417031	2.144707e+00	9.411402e+01	-1.433062e+00	0	0
3418984	2.145000e+00	1.171985e+02	-7.836910e-01	0	0
3420938	2.145000e+00	1.145417e+02	-2.609369e-01	0	0
3422891	2.145000e+00	1.142708e+02	4.064886e-01	0	0
3424844	2.145000e+00	1.142545e+02	7.013706e-01	0	0
3426797	2.145000e+00	1.295749e+02	7.184576e-01	0	0
3428750	2.145000e+00	1.428586e+02	7.194308e-01	0	0
3430703	2.145000e+00	1.410411e+02	7.235983e-01	0	0
3432656	2.145000e+00	1.614334e+02	7.268535e-01	0	0
3434609	2.145000e+00	1.831144e+02	7.302963e-01	0	0
3436563	2.145000e+00	1.863162e+02	7.336333e-01	0	0
3438516	2.145000e+00	1.888809e+02	7.369396e-01	0	0
3440469	2.145000e+00	1.990236e+02	7.401962e-01	0	0
3442422	2.145708e+00	1.958075e+02	7.434056e-01	0	0
3444375	2.146000e+00	1.881687e+02	7.465762e-01	0	0
3446328	2.146000e+00	2.086401e+02	7.496701e-01	0	0
3448281	2.146000e+00	2.371468e+02	7.528291e-01	0	0
3450234	2.146000e+00	2.475824e+02	7.555219e-01	0	0
3452188	2.146000e+00	2.643436e+02	7.597306e-01	0	0
3454141	2.146000e+00	2.668546e+02	7.580615e-01	0	0
3456094	2.146000e+00	2.788220e+02	7.780929e-01	0	0
3458047	2.146000e+00	2.923129e+02	7.169133e-01	0	0
3460000	2.146000e+00	3.024912e+02	1.016990e+00	0	0
3461953	2.146000e+00	3.259847e+02	-8.843182e-03	0	0
3463906	2.146000e+00	3.579745e+02	-1.260651e+00	0	0
3465859	2.146000e+00	3.779792e+02	-4.007301e+00	0	0
3467813	2.146000e+00	3.899280e+02	1.778060e+00	0	0
3469766	2.146710e+00	4.112760e+02	-2.182342e+00	0	0
3471719	2.147000e+00	4.430684e+02	-4.410235e+00	0	0
3473672	2.147000e+00	4.505790e+02	1.626526e-01	0	0
3475625	2.147000e+00	4.539675e+02	-5.508791e+00	0	0
3477578	2.147000e+00	4.705887e+02	2.426125e+00	0	0
3479531	2.147000e+00	4.752529e+02	6.971880e+00	0	0
3481484	2.147000e+00	4.874745e+02	6.203722e+00	0	0
3483438	2.147000e+00	5.050690e+02	7.058726e+00	0	0
3485391	2.147000e+00	5.101743e+02	9.209771e+00	0	0
3487344	2.147000e+00	5.112919e+02	2.096689e+01	0	0
3489297	2.147000e+00	5.532384e+02	1.823518e+01	0	0
3491250	2.147000e+00	5.677750e+02	1.264952e+01	0	0
3493203	2.147712e+00	5.607164e+02	6.528094e+00	0	0
3495156	2.148000e+00	5.719604e+02	3.232095e+00	0	0
3497109	2.148000e+00	5.562500e+02	3.019210e+00	0	0
3499063	2.148000e+00	5.560852e+02	-1.831758e+00	0	0
3501016	2.148000e+00	5.539293e+02	-6.151416e+00	0	0
3502969	2.148000e+00	5.379797e+02	-7.168265e+00	0	0
3504922	2.148000e+00	5.186420e+02	-5.115135e+00	0	0
3506875	2.148000e+00	5.110268e+02	-1.147903e-01	0	0
3508828	2.148000e+00	4.836630e+02	5.571349e-01	0	0
3510781	2.148000e+00	4.526529e+02	2.171856e-01	0	0
3512734	2.148713e+00	4.249515e+02	3.700407e+00	0	0
3514688	2.148287e+00	3.945060e+02	5.931939e+00	0	0
3516641	2.148713e+00	3.672771e+02	5.332074e+00	0	0
3518594	2.149000e+00	3.354915e+02	3.270978e+00	0	0
3520547	2.149000e+00	3.036680e+02	4.865005e-01	0	0
3522500	2.149000e+00	2.788319e+02	2.570378e-01	0	0
3524453	2.149000e+00	2.284012e+02	7.420815e-01	0	0
3526406	2.149000e+00	2.056848e+02	9.863729e-01	0	0
3528359	2.149000e+00	1.957092e+02	-2.238640e+00	0	0
3530313	2.149000e+00	1.854600e+02	-4.615112e+00	0	0
3532266	2.149000e+00	1.725358e+02	-4.305414e+00	0	0
3534219	2.149000e+00	1.402306e+02	-1.222892e+00	0	0
3536172	2.149714e+00	1.039393e+02	-2.921983e-01	0	0
3538125	2.150000e+00	7.849298e+01	-7.668320e-01	0	0
3540078	2.150000e+00	5.375527e+01	-1.059715e+00	0	0
3542031	2.150000e+00	1.797047e+01	-9.336204e-01	0	0
3543984	2.150000e+00	2.297570e+00	7.175979e-01	0	0
3545938	2.150000e+00	-3.266130e+01	1.564081e+00	0	0
3547891	2.150000e+00	-3.818804e+01	8.904529e-02	0	0
3549844	2.150000e+00	-4.129988e+01	-1.730858e+00	0	0
3551797	2.150000e+00	-4.133169e+01	-2.329056e+00	0	0
3553750	2.150716e+00	-4.745225e+01	-1.534707e+00	0	0
3555703	2.151000e+00	-5.151129e+01	-6.037506e+00	0	0
3557656	2.151000e+00	-5.401646e+01	-3.594412e+00	0	0
3559609	2.151000e+00	-5.012106e+01	-1.782824e+00	0	0
3561563	2.151000e+00	-6.781148e+01	-2.297676e+00	0	0
3563516	2.151000e+00	-7.077887e+01	-1.861408e+00	0	0
3565469	2.151000e+00	-7.302091e+01	-2.957410e+00	0	0
3567422	2.151000e+00	-8.349147e+01	3.641927e+00	0	0
3569375	2.151000e+00	-8.630610e+01	1.559503e-01	0	0
3571328	2.151000e+00	-8.101020e+01	-2.692569e+00	0	0
3573281	2.151000e+00	-7.800731e+01	-8.933137e-01	0	0
3575234	2.151000e+00	-9.033023e+01	-7.430609e+00	0	0
3577188	2.151717e+00	-9.869738e+01	-3.769145e+00	0	0
3579141	2.152000e+00	-8.746364e+01	-1.132060e+00	0	0
3581094	2.152000e+00	-9.511537e+01	-1.724642e+00	0	0
3583047	2.152000e+00	-1.035722e+02	-1.287387e+00	0	0
3585000	2.152000e+00	-9.832424e+01	-1.846617e+00	0	0
3586953	2.152000e+00	-1.083282e+02	2.001202e+00	0	0
3588906	2.152718e+00	-9.978682e+01	8.012358e-02	0	0
3590859	2.152282e+00	-1.042881e+02	-1.272981e+00	0	0
3592813	2.152718e+00	-9.957183e+01	-6.950331e-01	0	0
3594766	2.153000e+00	-1.176394e+02	-1.026045e+00	0	0
3596719	2.153000e+00	-1.124269e+02	-6.327578e-01	0	0
3598672	2.153000e+00	-1.153699e+02	-3.282236e-01	0	0
3600625	2.153000e+00	-1.322662e+02	-1.986672e-01	0	0
3602578	2.153000e+00	-1.236073e+02	-1.954426e-02	0	0
3604531	2.153000e+00	-1.290451e+02	1.500804e-01	0	0
3606484	2.153719e+00	-1.389183e+02	3.261030e-01	0	0
3608438	2.154000e+00	-1.284711e+02	4.995447e-01	0	0
3610391	2.154000e+00	-1.131456e+02	6.860480e-01	0	0
3612344	2.154000e+00	-1.173049e+02	7.850711e-01	0	0
3614297	2.154000e+00	-9.868757e+01	7.919260e-01	0	0
3616250	2.154000e+00	-9.490195e+01	7.866145e-01	0	0
3618203	2.154000e+00	-9.557102e+01	7.840662e-01	0	0
3620156	2.154000e+00	-8.694393e+01	7.806296e-01	0	0
3622109	2.154720e+00	-7.682360e+01	7.774706e-01	0	0
3624063	2.155000e+00	-7.237930e+01	7.735775e-01	0	0
3626016	2.155000e+00	-9.923134e+01	7.718291e-01	0	0
3627969	2.155000e+00	-9.297728e+01	7.617359e-01	0	0
3629922	2.155000e+00	-8.852883e+01	7.823738e-01	0	0
3631875	2.155000e+00	-1.021796e+02	6.879396e-01	0	0
3633828	2.155000e+00	-1.053258e+02	1.022534e+00	0	0
3635781	2.155000e+00	-1.103232e+02	-1.023757e+00	0	0
3637734	2.155000e+00	-1.333673e+02	8.946105e-02	0	0
3639688	2.155721e+00	-1.259957e+02	9.712766e-01	0	0
3641641	2.156000e+00	-1.221649e+02	4.405811e-01	0	0
3643594	2.156000e+00	-1.256930e+02	2.372658e+00	0	0
3645547	2.156000e+00	-1.197912e+02	1.894129e+00	0	0
3647500	2.156000e+00	-1.279620e+02	1.246881e+01	0	0
3649453	2.156000e+00	-1.235566e+02	5.300045e+00	0	0
3651406	2.156000e+00	-1.136651e+02	-1.486415e+00	0	0
3653359	2.156000e+00	-1.132273e+02	1.232524e+00	0	0
3655313	2.156722e+00	-1.162544e+02	-1.301730e+01	0	0
3657266	2.157000e+00	-1.248838e+02	-4.730963e+00	0	0
3659219	2.157000e+00	-1.119651e+02	1.222126e+00	0	0
3661172	2.157000e+00	-1.318613e+02	1.386765e-01	0	0
3663125	2.157000e+00	-1.454919e+02	2.080322e+00	0	0
3665078	2.157000e+00	-1.399271e+02	-1.508306e+00	0	0
3667031	2.157000e+00	-1.595196e+02	1.282512e+01	0	0
3668984	2.157723e+00	-1.316859e+02	2.341179e+00	0	0
3670938	2.158000e+00	-1.151855e+02	-5.041220e+00	0	0
3672891	2.158000e+00	-1.160680e+02	-5.102127e+00	0	0
3674844	2.158000e+00	-1.226643e+02	-3.411584e+00	0	0
3676797	2.158000e+00	-1.303757e+02	-1.862283e+01	0	0
3678750	2.158000e+00	-1.304460e+02	-9.353316e+00	0	0
3680703	2.158000e+00	-1.233802e+02	6.611749e-01	0	0
3682656	2.158000e+00	-1.344074e+02	3.783559e+00	0	0
3684609	2.158724e+00	-1.472294e+02	3.811919e+00	0	0
3686563	2.159000e+00	-1.592263e+02	1.487016e+01	0	0
3688516	2.159000e+00	-1.327242e+02	1.447535e+01	0	0
3690469	2.159000e+00	-1.165062e+02	1.518742e+01	0	0
3692422	2.159000e+00	-9.792954e+01	1.917876e+01	0	0
3694375	2.159000e+00	-9.410047e+01	1.092205e+01	0	0
3696328	2.159000e+00	-1.021820e+02	1.032888e+01	0	0
3698281	2.159725e+00	-1.001562e+02	9.751449e+00	0	0
3700234	2.160000e+00	-1.000746e+02	7.901986e+00	0	0
3702188	2.160000e+00	-9.067896e+01	7.050382e+00	0	0
3704141	2.160000e+00	-9.270769e+01	4.355071e+00	0	0
3706094	2.160000e+00	-7.853339e+01	5.408430e+00	0	0
3708047	2.160000e+00	-8.088533e+01	7.969496e-01	0	0
3710000	2.160000e+00	-7.462523e+01	-2.703669e+00	0	0
3711953	2.160725e+00	-6.691388e+01	-2.811600e+00	0	0
3713906	2.161000e+00	-6.908361e+01	-2.723961e-01	0	0
3715859	2.161000e+00	-6.839073e+01	-4.915208e+00	0	0
3717813	2.161000e+00	-7.889049e+01	-1.810359e+00	0	0
3719766	2.161000e+00	-1.017032e+02	-8.234139e-01	0	0
3721719	2.161000e+00	-1.177521e+02	-2.706660e+00	0	0
3723672	2.161726e+00	-1.124614e+02	-3.055865e+00	0	0
3725625	2.162000e+00	-1.036907e+02	-4.781659e+00	0	0
3727578	2.162000e+00	-1.022379e+02	2.891082e+00	0	0
3729531	2.162000e+00	-9.444455e+01	-1.265589e+00	0	0
3731484	2.162000e+00	-8.966566e+01	-4.338826e+00	0	0
3733438	2.162000e+00	-8.107249e+01	-2.355285e+00	0	0
3735391	2.162000e+00	-9.938996e+01	-8.564008e+00	0	0
3737344	2.162727e+00	-1.125471e+02	-4.440681e+00	0	0
3739297	2.163000e+00	-1.216220e+02	-1.715288e+00	0	0
3741250	2.163000e+00	-1.175431e+02	-2.507450e+00	0	0
3743203	2.163000e+00	-1.202201e+02	-2.636906e+00	0	0
3745156	2.163000e+00	-1.190992e+02	-2.885907e+00	0	0
3747109	2.163000e+00	-1.284922e+02	-3.039558e+00	0	0
3749063	2.163000e+00	-1.349518e+02	-3.151996e+00	0	0
3751016	2.163000e+00	-1.355122e+02	-3.209731e+00	0	0
3752969	2.163728e+00	-1.356843e+02	-3.200924e+00	0	0
3754922	2.164000e+00	-1.319862e+02	-3.180147e+00	0	0
3756875	2.164000e+00	-9.370701e+01	-2.815398e+00	0	0
3758828	2.164000e+00	-5.235690e+01	-2.405527e+00	0	0
3760781	2.164729e+00	-5.034443e+01	-2.187268e+00	0	0
3762734	2.165000e+00	-6.981229e+01	-2.207372e+00	0	0
3764688	2.165000e+00	-9.450617e+01	-1.982973e+00	0	0
3766641	2.165000e+00	-8.833578e+01	-1.560174e+00	0	0
3768594	2.165000e+00	-1.048504e+02	-1.097765e+00	0	0
3770547	2.165000e+00	-1.132616e+02	-6.048452e-01	0	0
3772500	2.165000e+00	-1.095353e+02	-4.905054e-02	0	0
3774453	2.165729e+00	-1.046748e+02	2.625931e-01	0	0
3776406	2.166000e+00	-1.000828e+02	2.871051e-01	0	0
3778359	2.166000e+00	-1.044856e+02	2.706063e-01	0	0
3780313	2.166000e+00	-1.290261e+02	2.637270e-01	0	0
3782266	2.166000e+00	-1.273772e+02	2.546818e-01	0	0
3784219	2.166000e+00	-1.052540e+02	2.443959e-01	0	0
3786172	2.166730e+00	-9.465187e+01	2.409356e-01	0	0
3788125	2.167000e+00	-7.217347e+01	2.111146e-01	0	0
3790078	2.167000e+00	-7.032090e+01	3.399510e-01	0	0
3792031	2.167000e+00	-8.343785e+01	5.579721e-01	0	0
3793984	2.167000e+00	-7.989557e+01	1.820690e+00	0	0
3795938	2.167000e+00	-1.018033e+02	-2.533580e+00	0	0
3797891	2.167731e+00	-8.929191e+01	5.705806e-01	0	0
3799844	2.168000e+00	-8.984223e+01	2.703920e+00	0	0
3801797	2.168000e+00	-7.997264e+01	2.260292e+00	0	0
3803750	2.168000e+00	-1.152461e+02	3.758226e+00	0	0
3805703	2.168000e+00	-1.345995e+02	2.632856e+00	0	0
3807656	2.168000e+00	-1.059904e+02	1.238431e+01	0	0
3809609	2.168732e+00	-2.110857e+01	6.103613e+00	0	0
3811563	2.169000e+00	4.368721e+01	1.817621e+00	0	0
3813516	2.169000e+00	4.365828e+01	4.355355e+00	0	0
3815469	2.169000e+00	4.778778e+01	-5.871996e+00	0	0
3817422	2.169000e+00	6.488719e+00	-2.183863e-01	0	0
3819375	2.169000e+00	2.491633e+01	2.357303e+00	0	0
3821328	2.169732e+00	2.277218e+01	1.278466e+00	0	0
3823281	2.170000e+00	5.216006e+01	2.204703e+00	0	0
3825234	2.170000e+00	6.086426e+01	1.894306e+00	0	0
3827188	2.170000e+00	5.192330e+01	2.848762e+00	0	0
3829141	2.170000e+00	5.654720e+01	1.853746e+00	0	0
3831094	2.170000e+00	4.260441e+01	1.063461e+00	0	0
3833047	2.170733e+00	7.026580e+01	7.998056e-01	0	0
3835000	2.171000e+00	9.665427e+01	3.547982e-01	0	0
3836953	2.171000e+00	1.245692e+02	4.313316e-02	0	0
3838906	2.171000e+00	1.279128e+02	-1.024602e-02	0	0
3840859	2.171000e+00	1.480642e+02	2.744575e-03	0	0
3842813	2.171734e+00	1.459785e+02	-7.330480e-04	0	0
3844766	2.172000e+00	1.388431e+02	1.938059e-04	0	0
3846719	2.172000e+00	1.332600e+02	-4.233897e-05	0	0
3848672	2.172000e+00	1.461535e+02	-2.440321e-05	0	0
3850625	2.172000e+00	2.042254e+02	1.399282e-04	0	0
3852578	2.172734e+00	1.806238e+02	-5.352617e-04	0	0
3854531	2.173000e+00	1.552222e+02	2.000951e-03	0	0
3856484	2.173000e+00	1.583357e+02	-7.467920e-03	0	0
3858438	2.173000e+00	1.661362e+02	2.784698e-02	0	0
3860391	2.173000e+00	1.389928e+02	-2.162306e-01	0	0
3862344	2.173735e+00	1.193209e+02	-4.098557e-01	0	0
3864297	2.174000e+00	1.186777e+02	-1.011974e+00	0	0
3866250	2.174000e+00	1.312972e+02	1.078105e+00	0	0
3868203	2.174000e+00	1.270961e+02	-4.071871e-01	0	0
3870156	2.174000e+00	1.512472e+02	-1.232155e+00	0	0
3872109	2.174000e+00	1.400923e+02	-1.322575e+00	0	0
3874063	2.174736e+00	1.287173e+02	-2.282481e-01	0	0
3876016	2.175000e+00	1.082567e+02	-6.907532e+00	0	0
3877969	2.175000e+00	6.661036e+01	-2.812505e+00	0	0
3879922	2.175000e+00	3.786740e+01	-1.730588e-01	0	0
3881875	2.175736e+00	6.228197e+00	-7.123583e-01	0	0
3883828	2.176000e+00	-2.308203e+01	4.178685e-02	0	0
3885781	2.176000e+00	-6.228717e+01	-1.188569e+00	0	0
3887734	2.176000e+00	-2.059129e+01	7.860007e+00	0	0
3889688	2.176000e+00	-3.778194e+00	2.660539e+00	0	0
3891641	2.176000e+00	-2.764036e+01	-9.359922e-01	0	0
3893594	2.176000e+00	-6.481966e+01	1.248343e+00	0	0
3895547	2.176737e+00	-6.427273e+01	-7.482391e+00	0	0
3897500	2.177000e+00	-5.696715e+01	-2.430993e+00	0	0
3899453	2.177000e+00	-5.492989e+01	6.200745e-01	0	0
3901406	2.177000e+00	-8.060974e+01	-2.047160e-01	0	0
3903359	2.177000e+00	-8.371285e+01	1.989131e-01	0	0
3905313	2.177738e+00	-1.203953e+02	-5.904384e-01	0	0
3907266	2.178000e+00	-1.042981e+02	4.020018e+00	0	0
3909219	2.178000e+00	-8.422786e+01	1.329830e+00	0	0
3911172	2.178000e+00	-8.175929e+01	-3.940443e-01	0	0
3913125	2.178000e+00	-7.547134e+01	3.294634e-01	0	0
3915078	2.178738e+00	-1.117061e+02	-1.697232e+00	0	0
3917031	2.179000e+00	-1.382169e+02	-5.394981e-01	0	0
3918984	2.179000e+00	-1.495884e+02	1.353132e-01	0	0
3920938	2.179000e+00	-9.598023e+01	-3.617275e-02	0	0
3922891	2.179739e+00	-1.112366e+02	9.690091e-03	0	0
3924844	2.180000e+00	-1.450798e+02	-2.595817e-03	0	0
3926797	2.180000e+00	-1.491721e+02	6.953773e-04	0	0
3928750	2.180000e+00	-1.281950e+02	-1.862656e-04	0	0
3930703	2.180000e+00	-1.063321e+02	4.989679e-05	0	0
3932656	2.180739e+00	-1.030394e+02	-1.338008e-05	0	0
3934609	2.181000e+00	-9.424148e+01	3.639219e-06	0	0
3936563	2.181000e+00	-1.244481e+02	-1.178781e-06	0	0
3938516	2.181000e+00	-1.453908e+02	1.084467e-06	0	0
3940469	2.181000e+00	-1.425874e+02	-3.159008e-06	0	0
3942422	2.181740e+00	-1.514743e+02	1.155023e-05	0	0
3944375	2.182000e+00	-1.068400e+02	-4.303662e-05	0	0
3946328	2.182000e+00	-1.091280e+02	1.605764e-04	0	0
3948281	2.182000e+00	-1.235575e+02	-5.991952e-04	0	0
3950234	2.182000e+00	-1.259108e+02	2.235928e-03	0	0
3952188	2.182741e+00	-9.767282e+01	-8.336611e-03	0	0
3954141	2.183000e+00	-1.244168e+02	3.110849e-02	0	0
3956094	2.183000e+00	-1.393344e+02	-2.183590e-01	0	0
3958047	2.183000e+00	-1.078028e+02	-7.346767e-02	0	0
3960000	2.183742e+00	-9.879068e+01	2.967366e-02	0	0
3961953	2.184000e+00	-9.876689e+01	-4.957025e-02	0	0
3963906	2.184000e+00	-1.104607e+02	1.685920e-01	0	0
3965859	2.184000e+00	-1.110762e+02	-6.247213e-01	0	0
3967813	2.184000e+00	-1.622802e+02	4.390296e+00	0	0
3969766	2.184743e+00	-1.705411e+02	1.466059e+00	0	0
3971719	2.185000e+00	-1.912223e+02	-5.842791e-01	0	0
3973672	2.185000e+00	-1.716312e+02	9.572647e-01	0	0
3975625	2.185000e+00	-1.307523e+02	-6.082328e+00	0	0
3977578	2.185000e+00	-9.682851e+01	-1.924107e+00	0	0
3979531	2.185743e+00	-2.276432e+01	4.984772e-01	0	0
3981484	2.186000e+00	7.380174e+01	-1.879570e-01	0	0
3983438	2.186000e+00	1.682286e+02	2.532187e-01	0	0
3985391	2.186000e+00	3.557139e+02	-8.251796e-01	0	0
3987344	2.186744e+00	6.654205e+02	5.753705e+00	0	0
3989297	2.187000e+00	9.748916e+02	1.854888e+00	0	0
3991250	2.187000e+00	1.236242e+03	-5.849567e-01	0	0
3993203	2.187000e+00	1.553702e+03	5.958079e-01	0	0
3995156	2.187000e+00	1.793240e+03	-3.365790e+00	0	0
3997109	2.187744e+00	1.987179e+03	-1.043186e+00	0	0
3999063	2.188000e+00	2.019631e+03	2.618371e-01	0	0
4001016	2.188000e+00	1.907850e+03	-7.016854e-02	0	0
4002969	2.188000e+00	1.688346e+03	1.855257e-02	0	0
4004922	2.188745e+00	1.294683e+03	-1.015846e-02	0	0
4006875	2.189000e+00	1.034931e+03	-9.860652e-03	0	0
4008828	2.189000e+00	8.488861e+02	-1.712065e-02	0	0
4010781	2.189000e+00	6.616311e+02	-2.211677e-02	0	0
4012734	2.189000e+00	3.421763e+02	-2.747625e-02	0	0
4014688	2.189746e+00	-9.655017e+00	-3.249322e-02	0	0
4016641	2.190000e+00	-1.714804e+02	-3.735636e-02	0	0
4018594	2.190000e+00	-1.630802e+02	-4.202755e-02	0	0
4020547	2.190000e+00	-1.578278e+02	-4.651888e-02	0	0
4022500	2.190746e+00	-1.705054e+02	-5.082551e-02	0	0
4024453	2.191000e+00	-1.723861e+02	-5.493677e-02	0	0
4026406	2.191000e+00	-1.305744e+02	-5.888210e-02	0	0
4028359	2.191000e+00	-8.365384e+01	-6.253625e-02	0	0
4030313	2.191747e+00	-4.329024e+01	-6.635417e-02	0	0
4032266	2.192000e+00	-5.141412e+00	-6.862738e-02	0	0
4034219	2.192000e+00	-4.438392e+00	-8.001316e-02	0	0
4036172	2.192000e+00	-2.387965e+01	-9.379070e-02	0	0
4038125	2.192748e+00	-5.921220e+01	-1.133444e-01	0	0
4040078	2.193000e+00	-3.860650e+01	-1.094504e-01	0	0
4042031	2.193000e+00	-2.493102e+01	-1.922858e-01	0	0
4043984	2.193000e+00	-3.829893e+01	4.962682e-02	0	0
4045938	2.193748e+00	-3.350313e+01	-9.185578e-01	0	0
4047891	2.194000e+00	-3.644479e+01	5.203268e+00	0	0
4049844	2.194000e+00	-3.011803e+01	1.550788e+00	0	0
4051797	2.194000e+00	-5.012759e+01	-9.207222e-01	0	0
4053750	2.194000e+00	-1.788090e+01	9.941129e-01	0	0
4055703	2.194749e+00	-3.625121e+01	-8.114417e+00	0	0
4057656	2.195000e+00	-5.243601e+01	-2.656648e+00	0	0
4059609	2.195000e+00	-4.663156e+01	3.730262e-01	0	0
4061563	2.195000e+00	-6.560042e+01	-5.126354e-01	0	0
4063516	2.195750e+00	-6.690935e+01	7.220131e-02	0	0
4065469	2.196000e+00	-5.557471e+01	-1.460382e+00	0	0
4067422	2.196000e+00	-4.287482e+01	7.840329e+00	0	0
4069375	2.196000e+00	-4.178093e+01	1.896489e+00	0	0
4071328	2.196750e+00	-3.680995e+01	-1.708275e+00	0	0
4073281	2.197000e+00	-4.428836e+01	2.408755e-01	0	0
4075234	2.197000e+00	-4.085383e+01	-7.099960e+00	0	0
4077188	2.197000e+00	-4.865782e+01	-2.350439e+00	0	0
4079141	2.197000e+00	-4.611086e+01	1.316480e-01	0	0
4081094	2.197751e+00	-5.281484e+01	-5.096723e-01	0	0
4083047	2.198000e+00	-2.398182e+01	-3.229969e-01	0	0
4085000	2.198000e+00	-5.987992e+01	-4.812226e-01	0	0
4086953	2.198000e+00	-5.390535e+01	1.989690e-01	0	0
4088906	2.198751e+00	-1.852065e+01	-2.258089e-01	0	0
4090859	2.199000e+00	8.739833e+00	-4.581485e-01	0	0
4092813	2.199000e+00	2.375537e+00	-4.080825e-01	0	0
4094766	2.199752e+00	1.928473e+01	-4.304336e-01	0	0
4096719	2.200000e+00	1.411714e+01	-4.330134e-01	0	0
4098672	2.200000e+00	-6.741362e+00	-4.404836e-01	0	0
4100625	2.200000e+00	-2.625898e+00	-4.462381e-01	0	0
4102578	2.200000e+00	6.944550e+00	-4.520268e-01	0	0
4104531	2.200752e+00	6.283901e+00	-4.574423e-01	0	0
4106484	2.201000e+00	-1.003236e+00	-4.624261e-01	0	0
4108438	2.201000e+00	1.019585e+01	-4.677151e-01	0	0
4110391	2.201753e+00	-2.107286e+00	-4.714779e-01	0	0
4112344	2.202000e+00	1.498614e+01	-4.628188e-01	0	0
4114297	2.202000e+00	2.757842e+01	-2.429591e-01	0	0
4116250	2.202000e+00	4.203391e+00	-5.804967e-01	0	0
4118203	2.202000e+00	-2.782877e+00	-2.145416e-01	0	0
4120156	2.202754e+00	1.353534e+01	-2.225013e-02	0	0
4122109	2.203000e+00	1.173664e+01	-1.376650e-01	0	0
4124063	2.203000e+00	1.806115e+01	-5.827622e-02	0	0
4126016	2.203754e+00	6.483481e+00	-7.997243e-01	0	0
4127969	2.204000e+00	1.024553e+01	2.864148e+00	0	0
4129922	2.204000e+00	-1.750162e+00	4.745676e-01	0	0
4131875	2.204000e+00	4.794795e+00	-1.069586e+00	0	0
4133828	2.204000e+00	1.604969e+01	2.313068e-01	0	0
4135781	2.204755e+00	3.116673e+01	-6.305970e+00	0	0
4137734	2.205000e+00	2.209303e+01	-2.323568e+00	0	0
4139688	2.205000e+00	2.975200e+01	-2.089261e-01	0	0
4141641	2.205756e+00	4.273025e+01	-8.587641e-01	0	0
4143594	2.206000e+00	3.792289e+01	-3.482645e-01	0	0
4145547	2.206000e+00	6.239281e+01	-1.813093e+00	0	0
4147500	2.206000e+00	8.073215e+01	7.432131e+00	0	0
4149453	2.206756e+00	1.026091e+02	1.766048e+00	0	0
4151406	2.207000e+00	1.043365e+02	-1.608188e+00	0	0
4153359	2.207000e+00	9.875832e+01	4.435619e-01	0	0
4155313	2.207000e+00	1.019319e+02	-8.217842e+00	0	0
4157266	2.207757e+00	6.791911e+01	-2.934647e+00	0	0
4159219	2.208000e+00	6.915686e+01	-2.212607e-01	0	0
4161172	2.208000e+00	7.780512e+01	-9.540741e-01	0	0
4163125	2.208000e+00	7.235205e+01	-6.888779e-01	0	0
4165078	2.208757e+00	5.977721e+01	-1.090340e+00	0	0
4167031	2.209000e+00	7.718100e+01	1.136699e+00	0	0
4168984	2.209000e+00	8.978065e+01	-2.620900e-01	0	0
4170938	2.209000e+00	1.180880e+02	-9.910941e-01	0	0
4172891	2.209758e+00	1.591784e+02	-8.193193e-01	0	0
4174844	2.210000e+00	1.666299e+02	-8.800539e-01	0	0
4176797	2.210000e+00	1.541831e+02	-8.785279e-01	0	0
4178750	2.210758e+00	1.530746e+02	-8.936942e-01	0	0
4180703	2.211000e+00	1.707842e+02	-9.044039e-01	0	0
4182656	2.211000e+00	1.782787e+02	-9.163201e-01	0	0
4184609	2.211000e+00	2.081200e+02	-9.279255e-01	0	0
4186563	2.211759e+00	2.269847e+02	-9.396280e-01	0	0
4188516	2.212000e+00	2.869755e+02	-9.513186e-01	0	0
4190469	2.212000e+00	3.033211e+02	-9.629827e-01	0	0
4192422	2.212000e+00	3.208425e+02	-9.747933e-01	0	0
4194375	2.212759e+00	3.007025e+02	-9.860726e-01	0	0
4196328	2.213000e+00	2.476844e+02	-9.993525e-01	0	0
4198281	2.213000e+00	2.132202e+02	-1.005178e+00	0	0
4200234	2.213000e+00	2.350118e+02	-1.038827e+00	0	0
4202188	2.213760e+00	2.403147e+02	-9.687237e-01	0	0
4204141	2.214000e+00	2.532011e+02	-1.285648e+00	0	0
4206094	2.214000e+00	2.705495e+02	9.483692e-01	0	0
4208047	2.214000e+00	2.967378e+02	1.338177e+00	0	0
4210000	2.214760e+00	3.145730e+02	-6.718077e-01	0	0
4211953	2.215000e+00	3.065941e+02	-1.403399e+00	0	0
4213906	2.215000e+00	3.340723e+02	-2.374507e-01	0	0
4215859	2.215761e+00	3.516294e+02	-7.343111e+00	0	0
4217813	2.216000e+00	3.800651e+02	-2.912316e+00	0	0
4219766	2.216000e+00	3.725570e+02	-6.640119e-01	0	0
4221719	2.216000e+00	3.626092e+02	-1.357477e+00	0	0
4223672	2.216762e+00	3.679184e+02	-8.060981e-01	0	0
4225625	2.217000e+00	4.095505e+02	-2.387880e+00	0	0
4227578	2.217000e+00	4.280206e+02	7.764552e+00	0	0
4229531	2.217000e+00	4.415569e+02	1.444426e+00	0	0
4231484	2.217762e+00	4.495915e+02	-2.168088e+00	0	0
4233438	2.218000e+00	4.830694e+02	1.148039e-01	0	0
4235391	2.218000e+00	4.956796e+02	-9.892533e+00	0	0
4237344	2.218000e+00	5.190493e+02	-3.677732e+00	0	0
4239297	2.218763e+00	5.263247e+02	-6.272142e-01	0	0
4241250	2.219000e+00	5.478068e+02	-1.467894e+00	0	0
4243203	2.219000e+00	5.700454e+02	-1.094447e+00	0	0
4245156	2.219763e+00	5.758192e+02	-1.840450e+00	0	0
4247109	2.220000e+00	5.898894e+02	2.202606e+00	0	0
4249063	2.220000e+00	6.070706e+02	-1.601280e+00	0	0
4251016	2.220000e+00	6.156609e+02	-3.530695e+00	0	0
4252969	2.220764e+00	6.132304e+02	-3.320581e+00	0	0
4254922	2.221000e+00	6.392320e+02	-3.302885e+00	0	0
4256875	2.221000e+00	6.004401e+02	-2.903645e+00	0	0
4258828	2.221764e+00	5.991862e+02	-2.377038e+00	0	0
4260781	2.222000e+00	5.934082e+02	-1.603210e+00	0	0
4262734	2.222000e+00	5.693310e+02	-1.377684e+00	0	0
4264688	2.222765e+00	5.538108e+02	-1.404711e+00	0	0
4266641	2.223000e+00	5.296681e+02	-1.411225e+00	0	0
4268594	2.223000e+00	5.108712e+02	-1.423497e+00	0	0
4270547	2.223000e+00	4.922477e+02	-1.434184e+00	0	0
4272500	2.223000e+00	4.649683e+02	-1.445226e+00	0	0
4274453	2.223765e+00	4.414053e+02	-1.456200e+00	0	0
4276406	2.224000e+00	4.307895e+02	-1.466847e+00	0	0
4278359	2.224000e+00	3.989512e+02	-1.478624e+00	0	0
4280313	2.224766e+00	3.441677e+02	-1.485964e+00	0	0
4282266	2.225000e+00	3.073928e+02	-1.509669e+00	0	0
4284219	2.225000e+00	2.780257e+02	-1.344608e+00	0	0
4286172	2.225000e+00	2.435004e+02	-6.094504e-01	0	0
4288125	2.225766e+00	2.112646e+02	1.396608e-01	0	0
4290078	2.226000e+00	2.176365e+02	-5.087287e-01	0	0
4292031	2.226000e+00	1.943386e+02	3.294330e-01	0	0
4293984	2.226000e+00	1.457387e+02	2.603636e+00	0	0
4295938	2.226767e+00	1.218790e+02	-1.199893e+00	0	0
4297891	2.227000e+00	1.064122e+02	1.158762e+00	0	0
4299844	2.227000e+00	1.198322e+02	1.513975e+00	0	0
4301797	2.227767e+00	8.210092e+01	2.949340e+00	0	0
4303750	2.228000e+00	4.909652e+01	5.131579e+00	0	0
4305703	2.228000e+00	4.215690e+01	3.372670e+00	0	0
4307656	2.228000e+00	-1.827465e+00	1.650380e+01	0	0
4309609	2.228768e+00	-3.790075e+01	4.678989e+00	0	0
4311563	2.229000e+00	-3.107753e+01	-2.654627e+00	0	0
4313516	2.229000e+00	1.900357e+01	-1.211914e-02	0	0
4315469	2.229000e+00	2.455805e+01	-1.325782e+01	0	0
4317422	2.229769e+00	3.546568e+00	-8.059778e+00	0	0
4319375	2.230000e+00	-1.088058e+00	-8.429611e+00	0	0
4321328	2.230000e+00	-1.908742e+01	-1.207622e+01	0	0
4323281	2.230769e+00	-2.990738e+01	-1.218710e+01	0	0
4325234	2.231000e+00	-1.400927e+01	-1.135093e+01	0	0
4327188	2.231000e+00	-2.927739e+01	-3.675331e+00	0	0
4329141	2.231000e+00	-4.185429e+01	-3.806084e+00	0	0
4331094	2.231770e+00	-4.418862e+01	-4.414274e+00	0	0
4333047	2.232000e+00	-5.524632e+01	-3.572906e+00	0	0
4335000	2.232000e+00	-4.455856e+01	-3.100576e+00	0	0
4336953	2.232770e+00	-6.105461e+01	-1.255344e+00	0	0
4338906	2.233000e+00	-7.060669e+01	1.043014e+00	0	0
4340859	2.233000e+00	-6.081469e+01	2.470577e+00	0	0
4342813	2.233771e+00	-5.739042e+01	3.372266e+00	0	0
4344766	2.234000e+00	-4.415425e+01	3.797009e+00	0	0
4346719	2.234000e+00	-3.691413e+01	3.567528e+00	0	0
4348672	2.234000e+00	-3.377909e+01	2.550825e+00	0	0
4350625	2.234000e+00	-2.109019e+01	5.695560e-01	0	0
4352578	2.234771e+00	-1.567494e+01	-9.818820e-01	0	0
4354531	2.235000e+00	2.144970e+00	-1.156738e+00	0	0
4356484	2.235000e+00	-1.415921e+01	-1.154785e+00	0	0
4358438	2.235772e+00	-2.099054e+00	-7.702267e-01	0	0
4360391	2.236000e+00	9.103560e+00	-3.357695e-01	0	0
4362344	2.236000e+00	-8.356568e+00	6.314261e-02	0	0
4364297	2.236000e+00	-1.565479e+01	-8.067881e-01	0	0
4366250	2.236772e+00	-5.460186e+01	-1.590501e+00	0	0
4368203	2.237000e+00	-6.688821e+01	-1.212825e+00	0	0
4370156	2.237000e+00	-2.962949e+01	-6.710939e-01	0	0
4372109	2.237773e+00	-6.268647e+01	-8.758431e-01	0	0
4374063	2.238000e+00	-4.882090e+01	-1.280853e+00	0	0
4376016	2.238000e+00	-3.683529e+01	-1.508734e+00	0	0
4377969	2.238000e+00	-3.755073e+01	-1.607891e+00	0	0
4379922	2.238773e+00	-4.110118e+01	-1.660771e+00	0	0
4381875	2.239000e+00	-2.106125e+01	-1.689798e+00	0	0
4383828	2.239000e+00	-3.702011e+00	-1.662457e+00	0	0
4385781	2.239774e+00	-5.919962e+01	-1.819499e+00	0	0
4387734	2.240000e+00	-1.080829e+02	-8.492396e-01	0	0
4389688	2.240000e+00	-1.336465e+02	-1.487033e+00	0	0
4391641	2.240000e+00	-1.339369e+02	-1.870994e+00	0	0
4393594	2.240774e+00	-1.216252e+02	-1.522134e+00	0	0
4395547	2.241000e+00	-9.630473e+01	-3.546648e+00	0	0
4397500	2.241000e+00	-1.077756e+02	-2.263739e+00	0	0
4399453	2.241000e+00	-7.781814e+01	-1.699864e+00	0	0
4401406	2.241775e+00	-6.582370e+01	-1.867923e+00	0	0
4403359	2.242000e+00	-5.193447e+01	-1.846560e+00	0	0
4405313	2.242000e+00	-4.858861e+01	-1.876753e+00	0	0
