time	gsr	ecg	emg_trapezius	emg_corrugator	emg_zygomaticus
1328	2.156000e+00	-5.146891e+01	-3.264473e+01	0	0
3281	2.156000e+00	-4.762832e+01	-4.845115e+00	0	0
5234	2.156000e+00	-4.925349e+01	9.463389e-01	0	0
7188	2.156000e+00	-4.830223e+01	1.217841e+00	0	0
9141	2.156000e+00	-5.017012e+01	-4.522310e+00	0	0
11094	2.156000e+00	-4.632964e+01	3.581983e+01	0	0
13047	2.156000e+00	-3.149576e+01	1.586659e+01	0	0
15000	2.156000e+00	-2.152920e+01	-5.158139e+00	0	0
16953	2.156000e+00	-1.594169e+01	7.013864e+00	0	0
18906	2.156000e+00	-7.615501e+00	-3.608978e+01	0	0
20859	2.156000e+00	-6.643965e+00	-1.544117e+01	0	0
22813	2.156000e+00	-1.479845e+01	4.029741e+00	0	0
24766	2.156000e+00	-4.160100e+00	-1.263357e+00	0	0
26719	2.156000e+00	2.225153e+00	1.841580e+00	0	0
28672	2.156000e+00	9.985811e+00	-5.300669e+00	0	0
30625	2.156000e+00	1.945899e+01	3.309955e+01	0	0
32578	2.156000e+00	2.532681e+01	1.468788e+01	0	0
34531	2.156000e+00	3.836523e+01	-4.481515e+00	0	0
36484	2.156000e+00	5.010295e+01	5.233153e+00	0	0
38438	2.156000e+00	5.572399e+01	-2.783041e+01	0	0
40391	2.156000e+00	5.697728e+01	-3.187737e+01	0	0
42344	2.156000e+00	6.895811e+01	-4.670444e+00	0	0
44297	2.156000e+00	6.699205e+01	8.796366e-01	0	0
46250	2.156000e+00	6.814954e+01	1.059315e+00	0	0
48203	2.156000e+00	8.291146e+01	-4.524249e+00	0	0
50156	2.156000e+00	9.404763e+01	2.904896e+01	0	0
52109	2.156000e+00	9.971557e+01	1.280520e+01	0	0
54063	2.156000e+00	1.141887e+02	-3.943864e+00	0	0
56016	2.156000e+00	1.262330e+02	4.559158e+00	0	0
57969	2.156000e+00	1.429758e+02	-2.549008e+01	0	0
59922	2.156000e+00	1.615885e+02	-3.850031e+01	0	0
61875	2.156000e+00	1.594849e+02	-1.419939e+01	0	0
63828	2.156000e+00	1.666956e+02	-5.515596e-01	0	0
65781	2.156000e+00	1.673671e+02	1.803614e+00	0	0
67734	2.156000e+00	1.803076e+02	-4.246649e+00	0	0
69688	2.156000e+00	1.972054e+02	3.126024e+01	0	0
71641	2.156000e+00	2.175521e+02	3.230952e+01	0	0
73594	2.156000e+00	2.330504e+02	4.318710e+00	0	0
75547	2.156000e+00	2.434535e+02	-1.684694e+00	0	0
77500	2.156000e+00	2.557148e+02	1.384502e+00	0	0
79453	2.156000e+00	2.712254e+02	-3.816554e+01	0	0
81406	2.156000e+00	2.778923e+02	-2.959947e+01	0	0
83359	2.156000e+00	2.722954e+02	-1.846762e+00	0	0
85313	2.156000e+00	2.747229e+02	-1.507229e-01	0	0
87266	2.156000e+00	2.853525e+02	2.051973e+00	0	0
89219	2.156000e+00	3.053389e+02	-5.079977e+00	0	0
91172	2.155310e+00	3.160877e+02	4.383305e+01	0	0
93125	2.155690e+00	3.327174e+02	1.978661e+01	0	0
95078	2.155310e+00	3.453722e+02	-5.658567e+00	0	0
97031	2.155691e+00	3.687815e+02	7.046622e+00	0	0
98984	2.156000e+00	3.711412e+02	-4.172965e+01	0	0
100938	2.155309e+00	3.738492e+02	-1.902094e+01	0	0
102891	2.155000e+00	3.845043e+02	-1.341379e+00	0	0
104844	2.155000e+00	3.861861e+02	-9.607142e+00	0	0
106797	2.155000e+00	3.858147e+02	-6.862225e+00	0	0
108750	2.155692e+00	3.902915e+02	-1.213991e+01	0	0
110703	2.155308e+00	4.015394e+02	2.801633e+01	0	0
112656	2.155000e+00	4.027345e+02	1.161962e+01	0	0
114609	2.155000e+00	4.074287e+02	-5.498829e+00	0	0
116563	2.155000e+00	3.987408e+02	4.451654e+00	0	0
118516	2.155000e+00	3.819666e+02	-2.569478e+01	0	0
120469	2.155000e+00	3.663633e+02	-2.624607e+01	0	0
122422	2.155000e+00	3.391502e+02	-1.693384e+00	0	0
124375	2.155000e+00	3.178849e+02	3.198580e+00	0	0
126328	2.155000e+00	2.944257e+02	4.268481e+00	0	0
128281	2.155000e+00	2.698678e+02	-6.280289e-01	0	0
130234	2.155000e+00	2.593684e+02	2.967276e+01	0	0
132188	2.155000e+00	2.363429e+02	1.367774e+01	0	0
134141	2.155000e+00	2.084382e+02	-1.868530e+00	0	0
136094	2.155000e+00	1.824570e+02	5.906289e+00	0	0
138047	2.155000e+00	1.549527e+02	-1.972093e+01	0	0
140000	2.155000e+00	1.189036e+02	-3.287808e+01	0	0
141953	2.155000e+00	1.003147e+02	-3.760320e+00	0	0
143906	2.155000e+00	7.610817e+01	5.976543e+00	0	0
145859	2.155000e+00	4.293696e+01	4.905903e+00	0	0
147813	2.155000e+00	2.218745e+01	1.297938e+00	0	0
149766	2.155000e+00	9.047788e+00	2.771783e+01	0	0
151719	2.155000e+00	-1.006634e+01	3.880118e+01	0	0
153672	2.155000e+00	-2.724826e+01	9.878502e+00	0	0
155625	2.155000e+00	-3.335013e+01	1.865535e+00	0	0
157578	2.155000e+00	-5.518830e+01	-8.507120e+00	0	0
159531	2.155000e+00	-6.644990e+01	-3.649487e+01	0	0
161484	2.155000e+00	-7.586182e+01	-1.683896e+01	0	0
163438	2.155000e+00	-9.523621e+01	4.376087e-01	0	0
165391	2.155000e+00	-1.009269e+02	-1.963666e-01	0	0
167344	2.155000e+00	-1.182518e+02	-1.218873e-01	0	0
169297	2.155000e+00	-1.273462e+02	4.837347e+00	0	0
171250	2.155000e+00	-1.240532e+02	4.227826e+01	0	0
173203	2.155000e+00	-1.271373e+02	1.440409e+01	0	0
175156	2.155000e+00	-1.261959e+02	-6.592810e+00	0	0
177109	2.155000e+00	-1.310428e+02	4.645544e+00	0	0
179063	2.155000e+00	-1.413693e+02	-4.279351e+01	0	0
181016	2.155000e+00	-1.510080e+02	-1.981072e+01	0	0
182969	2.155000e+00	-1.524561e+02	-3.445910e-01	0	0
184922	2.155000e+00	-1.528199e+02	-5.833150e+00	0	0
186875	2.155000e+00	-1.615981e+02	-2.321227e+00	0	0
188828	2.155000e+00	-1.574515e+02	-9.615895e+00	0	0
190781	2.155000e+00	-1.434473e+02	3.375212e+01	0	0
192734	2.155000e+00	-1.545533e+02	1.295862e+01	0	0
194688	2.155000e+00	-1.439484e+02	-6.546101e+00	0	0
196641	2.155000e+00	-1.413004e+02	6.022535e+00	0	0
198594	2.155000e+00	-1.522085e+02	-3.478069e+01	0	0
200547	2.155000e+00	-1.582936e+02	-1.662959e+01	0	0
202500	2.155000e+00	-1.595617e+02	2.435108e+00	0	0
204453	2.155000e+00	-1.608568e+02	-1.089177e+00	0	0
206406	2.155000e+00	-1.729173e+02	1.517924e+00	0	0
208359	2.155000e+00	-1.761175e+02	-5.303865e+00	0	0
210313	2.155000e+00	-1.641541e+02	3.300508e+01	0	0
212266	2.155000e+00	-1.594801e+02	1.347006e+01	0	0
214219	2.155000e+00	-1.611071e+02	-4.437923e+00	0	0
216172	2.155000e+00	-1.542870e+02	5.671272e+00	0	0
218125	2.155000e+00	-1.558866e+02	-2.893426e+01	0	0
220078	2.155000e+00	-1.594782e+02	-3.274423e+01	0	0
222031	2.155000e+00	-1.655362e+02	-3.133441e+00	0	0
223984	2.155000e+00	-1.614197e+02	3.063563e+00	0	0
225938	2.155000e+00	-1.671061e+02	3.529411e+00	0	0
227891	2.155000e+00	-1.691705e+02	-2.726407e+00	0	0
229844	2.155000e+00	-1.660909e+02	3.679997e+01	0	0
231797	2.155000e+00	-1.573344e+02	2.042936e+01	0	0
233750	2.154298e+00	-1.522891e+02	-6.142253e-01	0	0
235703	2.154703e+00	-1.444233e+02	5.442807e+00	0	0
237656	2.155000e+00	-1.471881e+02	-2.325946e+01	0	0
239609	2.155000e+00	-1.537482e+02	-4.813094e+01	0	0
241563	2.155000e+00	-1.435835e+02	-2.280533e+01	0	0
243516	2.155000e+00	-1.531409e+02	1.840229e+00	0	0
245469	2.155000e+00	-1.576183e+02	3.617765e+00	0	0
247422	2.155000e+00	-1.545323e+02	4.109999e+00	0	0
249375	2.155000e+00	-1.482354e+02	-5.039271e+00	0	0
251328	2.155000e+00	-1.428810e+02	4.441246e+01	0	0
253281	2.154296e+00	-1.339927e+02	1.768132e+01	0	0
255234	2.154000e+00	-1.315960e+02	-6.223504e+00	0	0
257188	2.154000e+00	-1.298648e+02	8.187120e+00	0	0
259141	2.154000e+00	-1.345748e+02	-4.669911e+01	0	0
261094	2.154705e+00	-1.397012e+02	-2.196734e+01	0	0
263047	2.155000e+00	-1.341118e+02	-9.670148e-01	0	0
265000	2.154295e+00	-1.363352e+02	-6.091913e+00	0	0
266953	2.154000e+00	-1.429806e+02	-3.201374e-01	0	0
268906	2.154000e+00	-1.449818e+02	-6.408956e+00	0	0
270859	2.154000e+00	-1.378805e+02	3.869575e+01	0	0
272813	2.154000e+00	-1.352389e+02	1.536582e+01	0	0
274766	2.154000e+00	-1.285038e+02	-5.217531e+00	0	0
276719	2.154000e+00	-1.266630e+02	6.984545e+00	0	0
278672	2.154000e+00	-1.203367e+02	-3.018180e+01	0	0
280625	2.154000e+00	-1.387869e+02	-3.161561e+01	0	0
282578	2.154000e+00	-1.404894e+02	-1.582573e+00	0	0
284531	2.154000e+00	-1.276242e+02	3.448222e+00	0	0
286484	2.154000e+00	-1.396732e+02	3.541126e+00	0	0
288438	2.154000e+00	-1.330752e+02	-3.303792e+00	0	0
290391	2.154000e+00	-1.206661e+02	3.511676e+01	0	0
292344	2.154000e+00	-1.169712e+02	1.356920e+01	0	0
294297	2.154000e+00	-1.088178e+02	-4.519643e+00	0	0
296250	2.154000e+00	-9.763288e+01	5.148807e+00	0	0
298203	2.154000e+00	-1.083481e+02	-3.043242e+01	0	0
300156	2.154000e+00	-1.158740e+02	-3.216023e+01	0	0
302109	2.154000e+00	-1.194543e+02	-4.307184e+00	0	0
304063	2.154000e+00	-1.277621e+02	6.391202e-01	0	0
306016	2.154000e+00	-1.261240e+02	7.617252e-01	0	0
307969	2.154000e+00	-1.236718e+02	-4.095068e+00	0	0
309922	2.154000e+00	-1.280204e+02	2.891132e+01	0	0
311875	2.154000e+00	-1.135846e+02	3.443314e+01	0	0
313828	2.154000e+00	-1.120114e+02	4.707912e+00	0	0
315781	2.154000e+00	-1.153026e+02	6.947593e-01	0	0
317734	2.154000e+00	-1.122733e+02	-1.651777e+01	0	0
319688	2.154000e+00	-1.233398e+02	-4.166380e+01	0	0
321641	2.154000e+00	-1.283026e+02	-1.276368e+01	0	0
323594	2.154000e+00	-1.245725e+02	1.515512e+00	0	0
325547	2.154000e+00	-1.188038e+02	1.987800e-01	0	0
327500	2.154000e+00	-1.199097e+02	-2.797346e+00	0	0
329453	2.154000e+00	-1.189416e+02	2.263219e+01	0	0
331406	2.154000e+00	-1.218497e+02	4.771524e+01	0	0
333359	2.154000e+00	-1.136672e+02	1.171655e+01	0	0
335313	2.154000e+00	-1.093037e+02	-4.342301e+00	0	0
337266	2.154000e+00	-1.129361e+02	6.301601e+00	0	0
339219	2.154000e+00	-1.193913e+02	-3.769972e+01	0	0
341172	2.154000e+00	-1.283212e+02	-2.149823e+01	0	0
343125	2.154000e+00	-1.227869e+02	1.004794e+00	0	0
345078	2.154000e+00	-1.264317e+02	-8.032393e-01	0	0
347031	2.154000e+00	-1.368704e+02	1.568001e+00	0	0
348984	2.154000e+00	-1.304891e+02	-5.914056e+00	0	0
350938	2.154000e+00	-1.285182e+02	3.789410e+01	0	0
352891	2.154000e+00	-1.247957e+02	1.455345e+01	0	0
354844	2.154000e+00	-1.149328e+02	-5.000599e+00	0	0
356797	2.154000e+00	-1.145665e+02	6.064189e+00	0	0
358750	2.154000e+00	-1.206020e+02	-3.520117e+01	0	0
360703	2.154000e+00	-1.249599e+02	-2.217867e+01	0	0
362656	2.154000e+00	-1.294811e+02	1.365960e-01	0	0
364609	2.154000e+00	-1.279641e+02	-5.287254e-01	0	0
366563	2.154000e+00	-1.266795e+02	1.276896e+00	0	0
368516	2.154000e+00	-1.259723e+02	-5.041613e+00	0	0
370469	2.154000e+00	-1.072267e+02	3.240022e+01	0	0
372422	2.154000e+00	-9.232460e+01	1.227795e+01	0	0
374375	2.154000e+00	-5.068436e+01	-4.064943e+00	0	0
376328	2.154000e+00	-6.456703e+00	4.409088e+00	0	0
378281	2.154000e+00	8.621504e-01	-2.778235e+01	0	0
380234	2.154000e+00	5.300796e+00	-4.108766e+01	0	0
382188	2.154000e+00	9.971147e+00	-7.860590e+00	0	0
384141	2.154000e+00	2.466001e+01	1.464166e+00	0	0
386094	2.154000e+00	2.729554e+01	7.307309e-01	0	0
388047	2.154000e+00	2.314757e+01	-4.865766e+00	0	0
390000	2.154000e+00	3.517426e+01	3.225984e+01	0	0
391953	2.154000e+00	3.886337e+01	1.226416e+01	0	0
393906	2.154000e+00	4.607821e+01	-4.275752e+00	0	0
395859	2.154000e+00	6.573169e+01	5.323283e+00	0	0
397813	2.154000e+00	8.469076e+01	-3.194397e+01	0	0
399766	2.154000e+00	8.399667e+01	-2.512541e+01	0	0
401719	2.154000e+00	8.720186e+01	-1.430340e+01	0	0
403672	2.154000e+00	9.331083e+01	-4.220738e+00	0	0
405625	2.154000e+00	8.833058e+01	1.920122e+00	0	0
407578	2.154000e+00	8.382896e+01	-4.275435e+00	0	0
409531	2.154000e+00	8.477788e+01	3.005250e+01	0	0
411484	2.154000e+00	1.128575e+02	4.842063e+01	0	0
413438	2.154000e+00	1.413321e+02	1.010276e+01	0	0
415391	2.154000e+00	1.449932e+02	-3.924204e+00	0	0
417344	2.154000e+00	1.500554e+02	6.029269e+00	0	0
419297	2.154000e+00	1.345202e+02	-3.643886e+01	0	0
421250	2.154000e+00	1.296856e+02	-1.322152e+01	0	0
423203	2.154000e+00	1.149471e+02	3.275804e+00	0	0
425156	2.154000e+00	1.005905e+02	-1.344654e+00	0	0
427109	2.154000e+00	1.009167e+02	1.590007e+00	0	0
429063	2.154000e+00	9.131642e+01	-5.526965e+00	0	0
431016	2.153280e+00	9.164160e+01	3.560975e+01	0	0
432969	2.153000e+00	9.226324e+01	1.315629e+01	0	0
434922	2.153720e+00	8.547790e+01	-4.516106e+00	0	0
436875	2.154000e+00	5.606288e+01	5.312655e+00	0	0
438828	2.153280e+00	2.439218e+01	-3.236302e+01	0	0
440781	2.153000e+00	-2.222035e+00	-2.918604e+01	0	0
442734	2.153720e+00	-2.266475e+01	-2.920720e+00	0	0
444688	2.154000e+00	-4.885471e+01	2.366607e-01	0	0
446641	2.154000e+00	-6.996133e+01	1.009967e+00	0	0
448594	2.154000e+00	-8.619438e+01	-4.808045e+00	0	0
450547	2.153279e+00	-9.639007e+01	3.163833e+01	0	0
452500	2.153000e+00	-1.050923e+02	1.160123e+01	0	0
454453	2.153000e+00	-1.099839e+02	-4.001293e+00	0	0
456406	2.153000e+00	-1.077932e+02	4.674342e+00	0	0
458359	2.153000e+00	-1.155242e+02	-2.864578e+01	0	0
460313	2.153722e+00	-1.378095e+02	-2.549014e+01	0	0
462266	2.154000e+00	-1.528625e+02	-2.487162e+00	0	0
464219	2.154000e+00	-1.587348e+02	1.584946e-01	0	0
466172	2.154000e+00	-1.662934e+02	9.409852e-01	0	0
468125	2.153277e+00	-1.731665e+02	-4.470819e+00	0	0
470078	2.153000e+00	-1.701935e+02	2.943060e+01	0	0
472031	2.153000e+00	-1.695091e+02	1.067223e+01	0	0
473984	2.153000e+00	-1.602971e+02	-3.625872e+00	0	0
475938	2.153000e+00	-1.613902e+02	4.011101e+00	0	0
477891	2.153000e+00	-1.688956e+02	-2.618436e+01	0	0
479844	2.153000e+00	-1.751678e+02	-3.725584e+01	0	0
481797	2.153000e+00	-1.830884e+02	-7.316137e+00	0	0
483750	2.153000e+00	-1.780146e+02	1.153992e+00	0	0
485703	2.153000e+00	-1.882285e+02	3.849300e-01	0	0
487656	2.153000e+00	-1.899967e+02	-3.270165e+00	0	0
489609	2.153000e+00	-1.866593e+02	2.582249e+01	0	0
491563	2.153000e+00	-1.862810e+02	4.431337e+01	0	0
493516	2.153000e+00	-1.857708e+02	9.319235e+00	0	0
495469	2.153000e+00	-1.779239e+02	-3.525656e+00	0	0
497422	2.153000e+00	-1.744525e+02	5.026194e+00	0	0
499375	2.153000e+00	-1.842292e+02	-3.313955e+01	0	0
501328	2.153000e+00	-1.868182e+02	-3.354796e+01	0	0
503281	2.153000e+00	-1.935685e+02	-4.155404e+00	0	0
505234	2.153000e+00	-1.989573e+02	4.778281e-01	0	0
507188	2.153000e+00	-1.970396e+02	1.157236e+00	0	0
509141	2.153000e+00	-1.917090e+02	-5.688259e+00	0	0
511094	2.153000e+00	-1.858853e+02	3.807048e+01	0	0
513047	2.153000e+00	-1.917750e+02	1.363102e+01	0	0
515000	2.153000e+00	-1.810679e+02	-4.878458e+00	0	0
516953	2.153000e+00	-1.709789e+02	6.206694e+00	0	0
518906	2.153000e+00	-1.826058e+02	-3.681627e+01	0	0
520859	2.153000e+00	-1.778021e+02	-1.271716e+01	0	0
522813	2.153000e+00	-1.851226e+02	2.825315e+00	0	0
524766	2.153000e+00	-2.007551e+02	-3.229964e+00	0	0
526719	2.153000e+00	-2.397158e+02	-1.580124e+00	0	0
528672	2.153000e+00	-2.764497e+02	-7.560662e+00	0	0
530625	2.153000e+00	-2.737832e+02	3.131291e+01	0	0
532578	2.153000e+00	-2.458915e+02	1.127492e+01	0	0
534531	2.153000e+00	-2.028477e+02	-3.722859e+00	0	0
536484	2.153000e+00	-1.343551e+02	3.758535e+00	0	0
538438	2.153000e+00	-4.812212e+01	-2.503534e+01	0	0
540391	2.153000e+00	3.581892e+01	-4.026017e+01	0	0
542344	2.153000e+00	1.542698e+02	-5.270225e+00	0	0
544297	2.153000e+00	3.298345e+02	4.668000e+00	0	0
546250	2.153000e+00	6.268954e+02	2.034365e+00	0	0
548203	2.153000e+00	9.051205e+02	-4.838756e+00	0	0
550156	2.153000e+00	1.171303e+03	3.612528e+01	0	0
552109	2.153000e+00	1.467643e+03	1.343544e+01	0	0
554063	2.153000e+00	1.725492e+03	-3.196092e+00	0	0
556016	2.153000e+00	1.932550e+03	5.593749e+00	0	0
557969	2.153000e+00	1.948766e+03	-3.829908e+01	0	0
559922	2.153000e+00	1.852555e+03	-3.350459e+01	0	0
561875	2.153000e+00	1.577645e+03	-6.282837e+00	0	0
563828	2.153000e+00	1.203963e+03	-1.687539e+00	0	0
565781	2.153000e+00	9.558352e+02	2.133813e-01	0	0
567734	2.153000e+00	7.339102e+02	-4.925318e+00	0	0
569688	2.153000e+00	5.079101e+02	3.616116e+01	0	0
571641	2.153000e+00	1.391113e+02	5.009629e+01	0	0
573594	2.153000e+00	-2.140543e+02	9.052292e+00	0	0
575547	2.153000e+00	-3.517110e+02	-3.752186e+00	0	0
577500	2.153000e+00	-3.669904e+02	6.125490e+00	0	0
579453	2.153000e+00	-3.365296e+02	-4.052054e+01	0	0
581406	2.153000e+00	-2.996337e+02	-2.746932e+01	0	0
583359	2.153000e+00	-2.570994e+02	-8.649716e-01	0	0
585313	2.153000e+00	-2.179033e+02	-3.945238e-01	0	0
587266	2.153000e+00	-1.706314e+02	1.500219e+00	0	0
589219	2.153000e+00	-1.333659e+02	-6.257357e+00	0	0
591172	2.153000e+00	-1.185931e+02	4.220156e+01	0	0
593125	2.153000e+00	-1.049501e+02	1.496364e+01	0	0
595078	2.153000e+00	-9.695890e+01	-5.238741e+00	0	0
597031	2.153000e+00	-9.947388e+01	6.156418e+00	0	0
598984	2.153000e+00	-1.023429e+02	-4.066818e+01	0	0
600938	2.153000e+00	-1.084034e+02	-1.428517e+01	0	0
602891	2.153000e+00	-1.132310e+02	2.038709e+00	0	0
604844	2.153000e+00	-1.184850e+02	-2.801478e+00	0	0
606797	2.153000e+00	-1.289182e+02	-2.259888e-01	0	0
608750	2.153000e+00	-1.303120e+02	-6.748832e+00	0	0
610703	2.153000e+00	-1.244124e+02	3.215939e+01	0	0
612656	2.153000e+00	-1.205504e+02	1.069096e+01	0	0
614609	2.153000e+00	-1.107925e+02	-3.649817e+00	0	0
616563	2.153000e+00	-1.149188e+02	5.481741e+00	0	0
618516	2.153000e+00	-1.161756e+02	-2.994711e+01	0	0
620469	2.153000e+00	-1.215751e+02	-2.448981e+01	0	0
622422	2.153000e+00	-1.191170e+02	-1.417215e+00	0	0
624375	2.153000e+00	-1.195581e+02	7.162969e-01	0	0
626328	2.153000e+00	-1.277931e+02	1.657007e+00	0	0
628281	2.153000e+00	-1.216268e+02	-3.709881e+00	0	0
630234	2.153000e+00	-1.169413e+02	3.514685e+01	0	0
632188	2.153000e+00	-1.162375e+02	1.385282e+01	0	0
634141	2.153000e+00	-1.017909e+02	-7.766855e-01	0	0
636094	2.153000e+00	-1.047615e+02	7.327800e+00	0	0
638047	2.153000e+00	-1.039475e+02	-2.751358e+01	0	0
640000	2.153000e+00	-1.032418e+02	-4.351699e+01	0	0
641953	2.153000e+00	-1.083255e+02	-6.836687e+00	0	0
643906	2.153000e+00	-1.053756e+02	2.586538e+00	0	0
645859	2.153000e+00	-1.008174e+02	3.473982e-01	0	0
647813	2.153000e+00	-1.057964e+02	-2.941112e+00	0	0
649766	2.153000e+00	-1.005288e+02	2.525462e+01	0	0
651719	2.153000e+00	-8.961789e+01	4.803653e+01	0	0
653672	2.153000e+00	-8.174054e+01	9.841247e+00	0	0
655625	2.153000e+00	-7.456179e+01	-2.872927e+00	0	0
657578	2.153000e+00	-7.056027e+01	-1.568005e+00	0	0
659531	2.153000e+00	-6.890773e+01	-3.923226e+01	0	0
661484	2.153000e+00	-7.100254e+01	-2.673984e+01	0	0
663438	2.153000e+00	-6.525181e+01	-1.853777e+00	0	0
665391	2.153000e+00	-7.736297e+01	-9.650003e-02	0	0
667344	2.153000e+00	-7.606561e+01	-1.681491e+00	0	0
669297	2.153000e+00	-6.478334e+01	5.035716e+00	0	0
671250	2.153000e+00	-5.838200e+01	4.039178e+01	0	0
673203	2.153000e+00	-5.089121e+01	9.206643e+00	0	0
675156	2.153000e+00	-4.064656e+01	-7.299784e+00	0	0
677109	2.153000e+00	-3.814533e+01	3.212571e+00	0	0
679063	2.153000e+00	-4.690553e+01	-4.162515e+01	0	0
681016	2.153000e+00	-4.058398e+01	-1.509925e+01	0	0
682969	2.153000e+00	-3.231143e+01	6.962705e-01	0	0
684922	2.153000e+00	-3.637245e+01	-3.290286e+00	0	0
686875	2.153000e+00	-3.717242e+01	-1.133221e-02	0	0
688828	2.153000e+00	-3.471274e+01	-6.448701e+00	0	0
690781	2.153000e+00	-3.535446e+01	3.623964e+01	0	0
692734	2.153000e+00	-2.917451e+01	1.188077e+01	0	0
694688	2.153000e+00	-1.202369e+01	-4.365261e+00	0	0
696641	2.153000e+00	-7.620895e+00	5.159772e+00	0	0
698594	2.153000e+00	-4.619893e+00	-3.451171e+01	0	0
700547	2.153000e+00	-9.132765e+00	-2.756177e+01	0	0
702500	2.153000e+00	6.131158e-01	-2.253091e+00	0	0
704453	2.153000e+00	-3.472565e+00	-9.753683e-02	0	0
706406	2.153000e+00	2.524416e+00	1.018600e+00	0	0
708359	2.153000e+00	7.792685e+00	-5.322916e+00	0	0
710313	2.153000e+00	1.741514e+01	3.593725e+01	0	0
712266	2.153000e+00	2.686669e+01	1.150302e+01	0	0
714219	2.153000e+00	3.448289e+01	-4.250339e+00	0	0
716172	2.153000e+00	5.424339e+01	4.730407e+00	0	0
718125	2.153000e+00	4.947255e+01	-3.344807e+01	0	0
720078	2.153000e+00	5.259800e+01	-3.789192e+01	0	0
722031	2.153000e+00	5.369727e+01	-5.716857e+00	0	0
723984	2.153000e+00	6.386786e+01	7.533332e-01	0	0
725938	2.153000e+00	6.901342e+01	1.187333e+00	0	0
727891	2.153000e+00	6.904376e+01	-3.852686e+00	0	0
729844	2.153000e+00	7.856580e+01	3.745664e+01	0	0
731797	2.153000e+00	8.860698e+01	3.926277e+01	0	0
733750	2.153000e+00	9.854746e+01	7.080865e+00	0	0
735703	2.153000e+00	1.133553e+02	-6.386152e-01	0	0
737656	2.153000e+00	1.198183e+02	8.233543e+00	0	0
739609	2.153000e+00	1.215926e+02	-4.218218e+01	0	0
741563	2.153000e+00	1.342708e+02	-1.835753e+01	0	0
743516	2.153000e+00	1.390330e+02	1.064443e+00	0	0
745469	2.153000e+00	1.451116e+02	-2.398635e+00	0	0
747422	2.153000e+00	1.502595e+02	2.519796e+00	0	0
749375	2.153000e+00	1.598970e+02	-4.124949e+00	0	0
751328	2.153000e+00	1.716532e+02	5.023729e+01	0	0
753281	2.153000e+00	1.835546e+02	1.736804e+01	0	0
755234	2.153000e+00	1.989490e+02	-6.347902e+00	0	0
757188	2.153000e+00	2.139350e+02	4.353083e+00	0	0
759141	2.153000e+00	2.313301e+02	-4.818090e+01	0	0
761094	2.153000e+00	2.312147e+02	-2.022339e+01	0	0
763047	2.153000e+00	2.422567e+02	-6.982945e+00	0	0
765000	2.153000e+00	2.499415e+02	-1.321803e+01	0	0
766953	2.153000e+00	2.594168e+02	-9.294715e+00	0	0
768906	2.153000e+00	2.764491e+02	-1.128876e+01	0	0
770859	2.153000e+00	2.944874e+02	2.983575e+01	0	0
772813	2.153000e+00	3.057431e+02	8.501817e+00	0	0
774766	2.153000e+00	3.211501e+02	-3.498466e+00	0	0
776719	2.153000e+00	3.329569e+02	8.329257e+00	0	0
778672	2.153000e+00	3.465934e+02	-1.994179e+01	0	0
780625	2.153000e+00	3.597391e+02	-1.814497e+01	0	0
782578	2.153000e+00	3.645256e+02	3.766697e+00	0	0
784531	2.153000e+00	3.709692e+02	6.020173e+00	0	0
786484	2.153000e+00	3.861057e+02	5.248673e+00	0	0
788438	2.153000e+00	3.971959e+02	-1.181485e+00	0	0
790391	2.153752e+00	4.092964e+02	2.876629e+01	0	0
792344	2.153248e+00	4.220397e+02	9.030436e+00	0	0
794297	2.153752e+00	4.380939e+02	-1.955127e+00	0	0
796250	2.153248e+00	4.677065e+02	5.739812e+00	0	0
798203	2.153000e+00	4.682125e+02	-2.383509e+01	0	0
800156	2.153000e+00	4.770336e+02	-2.670504e+01	0	0
802109	2.153000e+00	4.798018e+02	-4.644049e-01	0	0
804063	2.153000e+00	4.813748e+02	4.884141e+00	0	0
806016	2.153753e+00	4.909245e+02	3.913175e+00	0	0
807969	2.154000e+00	4.962730e+02	-9.819345e-02	0	0
809922	2.154000e+00	4.994643e+02	2.440344e+01	0	0
811875	2.154000e+00	5.055373e+02	3.992447e+01	0	0
813828	2.154000e+00	5.006505e+02	7.829893e+00	0	0
815781	2.154000e+00	4.885005e+02	1.708807e+00	0	0
817734	2.154000e+00	4.873043e+02	-1.326513e+01	0	0
819688	2.154000e+00	4.659010e+02	-3.819444e+01	0	0
821641	2.154000e+00	4.525852e+02	-1.741027e+01	0	0
823594	2.153245e+00	4.270587e+02	-9.248330e-01	0	0
825547	2.153755e+00	3.993440e+02	1.215115e+00	0	0
827500	2.154000e+00	3.771413e+02	7.079526e-01	0	0
829453	2.154000e+00	3.469899e+02	1.213187e+01	0	0
831406	2.154000e+00	3.243257e+02	4.401836e+01	0	0
833359	2.153245e+00	3.025702e+02	9.938954e+00	0	0
835313	2.153756e+00	2.755282e+02	-5.985233e+00	0	0
837266	2.154000e+00	2.455473e+02	2.754072e+00	0	0
839219	2.154000e+00	2.096463e+02	-4.309089e+01	0	0
841172	2.154000e+00	1.799747e+02	-2.223040e+01	0	0
843125	2.154000e+00	1.525783e+02	-5.580693e+00	0	0
845078	2.154000e+00	1.257680e+02	-6.972367e+00	0	0
847031	2.154000e+00	1.032493e+02	-4.237629e+00	0	0
848984	2.154000e+00	7.655335e+01	-9.597476e+00	0	0
850938	2.154000e+00	6.602562e+01	2.870447e+01	0	0
852891	2.154000e+00	5.028607e+01	6.898161e+00	0	0
854844	2.154000e+00	4.734408e+01	-5.075774e+00	0	0
856797	2.154000e+00	3.513873e+01	4.304514e+00	0	0
858750	2.154000e+00	2.298107e+01	-2.763023e+01	0	0
860703	2.154000e+00	7.273085e+00	-2.462280e+01	0	0
862656	2.154000e+00	-4.373810e+00	-2.240470e+00	0	0
864609	2.154000e+00	-1.877933e+01	5.473940e-01	0	0
866563	2.154000e+00	-3.109792e+01	1.075363e+00	0	0
868516	2.154000e+00	-3.337277e+01	-2.655523e+00	0	0
870469	2.154000e+00	-2.982996e+01	3.161236e+01	0	0
872422	2.154000e+00	-3.023581e+01	1.230564e+01	0	0
874375	2.154000e+00	-2.673906e+01	1.427365e+00	0	0
876328	2.154000e+00	-3.432968e+01	8.599397e+00	0	0
878281	2.154000e+00	-3.888158e+01	-2.093872e+01	0	0
880234	2.154000e+00	-4.290430e+01	-2.798054e+01	0	0
882188	2.154000e+00	-5.336486e+01	8.914126e-01	0	0
884141	2.154000e+00	-6.255734e+01	6.904801e+00	0	0
886094	2.154000e+00	-7.079401e+01	6.690729e+00	0	0
888047	2.154000e+00	-6.497944e+01	1.448454e+00	0	0
890000	2.154000e+00	-6.815808e+01	3.763076e+01	0	0
891953	2.154000e+00	-4.977531e+01	1.770454e+01	0	0
893906	2.154000e+00	-5.238079e+01	1.830901e+00	0	0
895859	2.154000e+00	-5.631554e+01	7.970924e+00	0	0
897813	2.154000e+00	-5.855492e+01	-3.001097e+01	0	0
899766	2.154000e+00	-5.224239e+01	-4.298157e+01	0	0
901719	2.154000e+00	-5.807373e+01	-2.072266e+01	0	0
903672	2.154000e+00	-6.260801e+01	6.909506e-01	0	0
905625	2.154000e+00	-7.042206e+01	2.115637e+00	0	0
907578	2.154000e+00	-7.012087e+01	-1.234532e+00	0	0
909531	2.154000e+00	-6.745060e+01	1.171944e+01	0	0
911484	2.154000e+00	-7.616433e+01	4.991119e+01	0	0
913438	2.154000e+00	-6.953101e+01	1.158863e+01	0	0
915391	2.154000e+00	-5.927307e+01	-4.808839e+00	0	0
917344	2.154000e+00	-6.498217e+01	5.812665e+00	0	0
919297	2.154000e+00	-6.711649e+01	-4.846053e+01	0	0
921250	2.154000e+00	-6.745138e+01	-1.574115e+01	0	0
923203	2.154000e+00	-7.034333e+01	1.432009e+00	0	0
925156	2.154000e+00	-6.305606e+01	-3.062337e+00	0	0
927109	2.154000e+00	-5.566879e+01	6.416323e-03	0	0
929063	2.154000e+00	-5.790743e+01	-6.578630e+00	0	0
931016	2.154000e+00	-7.503556e+01	4.050349e+01	0	0
932969	2.154000e+00	-6.282094e+01	1.148139e+01	0	0
934922	2.154000e+00	-4.854299e+01	-4.485490e+00	0	0
936875	2.154000e+00	-5.155779e+01	5.221353e+00	0	0
938828	2.154000e+00	-5.938351e+01	-3.638271e+01	0	0
940781	2.154000e+00	-5.519348e+01	-1.509681e+01	0	0
942734	2.154000e+00	-5.691477e+01	1.091005e+00	0	0
944688	2.154766e+00	-6.547826e+01	-9.128601e-01	0	0
946641	2.154234e+00	-6.453354e+01	9.420478e-01	0	0
948594	2.154766e+00	-6.183443e+01	-4.374214e+00	0	0
950547	2.155000e+00	-6.124928e+01	3.059950e+01	0	0
952500	2.155000e+00	-5.165494e+01	8.569787e+00	0	0
954453	2.155000e+00	-4.924617e+01	-3.284334e+00	0	0
956406	2.155000e+00	-4.227147e+01	3.637180e+00	0	0
958359	2.155000e+00	-4.239037e+01	-2.752314e+01	0	0
960313	2.155000e+00	-4.759175e+01	-2.711414e+01	0	0
962266	2.155000e+00	-5.479815e+01	-3.235916e+00	0	0
964219	2.155000e+00	-6.197009e+01	3.178924e-01	0	0
966172	2.155000e+00	-6.129224e+01	5.222916e-01	0	0
968125	2.155000e+00	-5.723434e+01	-3.542975e+00	0	0
970078	2.155000e+00	-4.551595e+01	2.736519e+01	0	0
972031	2.155000e+00	-4.590775e+01	2.105443e+01	0	0
973984	2.155000e+00	-3.598516e+01	8.190577e-01	0	0
975938	2.155000e+00	-3.369418e+01	1.522835e+00	0	0
977891	2.155000e+00	-3.923601e+01	-1.951440e+01	0	0
979844	2.155000e+00	-4.169269e+01	-3.628146e+01	0	0
981797	2.155000e+00	-3.450704e+01	-6.581101e+00	0	0
983750	2.155000e+00	-3.630475e+01	1.295414e+00	0	0
985703	2.155000e+00	-3.870064e+01	6.366458e-02	0	0
987656	2.155000e+00	-3.386950e+01	-2.471015e+00	0	0
989609	2.155000e+00	-2.936601e+01	2.262370e+01	0	0
991563	2.155000e+00	-2.895518e+01	3.928143e+01	0	0
993516	2.155000e+00	-2.922312e+01	6.966104e+00	0	0
995469	2.155000e+00	-3.342215e+01	-2.884083e+00	0	0
997422	2.155000e+00	-2.775713e+01	4.101749e+00	0	0
999375	2.155000e+00	-2.458182e+01	-3.217480e+01	0	0
1001328	2.155000e+00	-3.942103e+01	-3.193520e+01	0	0
1003281	2.155000e+00	-3.640276e+01	-3.705684e+00	0	0
1005234	2.155000e+00	-3.533784e+01	3.938903e-01	0	0
1007188	2.155000e+00	-3.428782e+01	9.435199e-01	0	0
1009141	2.155000e+00	-4.312569e+01	-5.045747e+00	0	0
1011094	2.155000e+00	-2.954522e+01	3.783217e+01	0	0
1013047	2.155000e+00	-2.772378e+01	1.042333e+01	0	0
1015000	2.155000e+00	-2.147844e+01	-4.063806e+00	0	0
1016953	2.155000e+00	-2.043358e+01	5.470045e+00	0	0
1018906	2.155000e+00	-3.007672e+01	-3.802600e+01	0	0
1020859	2.155000e+00	-3.306509e+01	-1.091422e+01	0	0
1022813	2.155000e+00	-3.296476e+01	2.309495e+00	0	0
1024766	2.155000e+00	-3.419317e+01	-1.089194e+00	0	0
1026719	2.155000e+00	-3.940976e+01	1.191816e+00	0	0
1028672	2.155774e+00	-2.983011e+01	-4.520979e+00	0	0
1030625	2.155226e+00	-2.442019e+01	3.321152e+01	0	0
1032578	2.155774e+00	-1.792733e+01	8.951701e+00	0	0
1034531	2.156000e+00	-1.856257e+01	-3.260062e+00	0	0
1036484	2.156000e+00	-5.719105e+00	3.692195e+00	0	0
1038438	2.156000e+00	-1.497790e+01	-2.834610e+01	0	0
1040391	2.156000e+00	-2.181435e+01	-3.180026e+01	0	0
1042344	2.156000e+00	-3.471842e+01	-4.181493e+00	0	0
1044297	2.156000e+00	-3.651520e+01	6.461304e-01	0	0
1046250	2.156000e+00	-3.363972e+01	4.883175e-01	0	0
1048203	2.156000e+00	-3.410336e+01	-3.403957e+00	0	0
1050156	2.156000e+00	-3.225093e+01	2.813677e+01	0	0
1052109	2.156000e+00	-2.428278e+01	2.571449e+01	0	0
1054063	2.156000e+00	-2.427927e+01	1.698618e+00	0	0
1056016	2.156000e+00	-3.036063e+01	1.964150e+00	0	0
1057969	2.156000e+00	-9.360665e+00	-2.524792e+01	0	0
1059922	2.156000e+00	-2.506355e+01	-3.975638e+01	0	0
1061875	2.156000e+00	-3.386294e+01	-1.835173e+01	0	0
1063828	2.156000e+00	-3.207435e+01	-1.576126e+00	0	0
1065781	2.156000e+00	-3.390944e+01	7.438300e-01	0	0
1067734	2.156000e+00	-4.094313e+01	-2.309021e+00	0	0
1069688	2.156000e+00	-4.644535e+01	2.156000e+01	0	0
1071641	2.156000e+00	-3.772348e+01	4.547529e+01	0	0
1073594	2.156000e+00	-2.481801e+01	8.519693e+00	0	0
1075547	2.156000e+00	-2.486868e+01	-3.557647e+00	0	0
1077500	2.156000e+00	-2.692080e+01	5.434897e+00	0	0
1079453	2.156000e+00	-3.257418e+01	-4.014127e+01	0	0
1081406	2.156000e+00	-4.513128e+01	-1.747882e+01	0	0
1083359	2.156000e+00	-3.393225e+01	4.191462e-01	0	0
1085313	2.156000e+00	-3.725312e+01	-8.222107e-01	0	0
1087266	2.156000e+00	-4.455311e+01	1.199169e+00	0	0
1089219	2.156000e+00	-4.103137e+01	-4.705268e+00	0	0
1091172	2.156000e+00	-4.209789e+01	3.553992e+01	0	0
1093125	2.156000e+00	-3.423968e+01	9.110330e+00	0	0
1095078	2.156000e+00	-3.124469e+01	-1.822052e+00	0	0
1097031	2.156000e+00	-2.161654e+01	6.946097e+00	0	0
1098984	2.156000e+00	-3.076090e+01	-2.883190e+01	0	0
1100938	2.156000e+00	-2.759010e+01	-3.016683e+01	0	0
1102891	2.156000e+00	-3.208493e+01	-3.481294e+00	0	0
1104844	2.156000e+00	-4.754406e+01	4.308333e-01	0	0
1106797	2.156781e+00	-1.766756e+01	8.094133e-01	0	0
1108750	2.157000e+00	-5.899846e+00	-4.355704e+00	0	0
1110703	2.157000e+00	-4.031826e+00	3.362532e+01	0	0
1112656	2.157000e+00	3.323584e+01	7.426976e+00	0	0
1114609	2.156219e+00	8.614607e+01	-5.965274e+00	0	0
1116563	2.156782e+00	1.059122e+02	1.780876e+00	0	0
1118516	2.157000e+00	1.159233e+02	-3.544935e+01	0	0
1120469	2.157000e+00	1.225455e+02	-1.560042e+01	0	0
1122422	2.157000e+00	1.360400e+02	5.371803e-01	0	0
1124375	2.157000e+00	1.324690e+02	-5.876190e-01	0	0
1126328	2.157000e+00	1.312610e+02	1.082566e+00	0	0
1128281	2.157000e+00	1.383509e+02	-4.392760e+00	0	0
1130234	2.157000e+00	1.448658e+02	3.373065e+01	0	0
1132188	2.157000e+00	1.506986e+02	8.612252e+00	0	0
1134141	2.157000e+00	1.686376e+02	-3.171551e+00	0	0
1136094	2.157000e+00	1.869653e+02	3.899698e+00	0	0
1138047	2.157000e+00	1.871938e+02	-3.039528e+01	0	0
1140000	2.157000e+00	1.895036e+02	-4.002323e+01	0	0
1141953	2.157000e+00	1.965809e+02	-1.897920e+01	0	0
1143906	2.157000e+00	2.113434e+02	-1.961192e+00	0	0
1145859	2.157000e+00	2.024874e+02	1.034705e+00	0	0
1147813	2.157000e+00	2.084448e+02	-2.929665e+00	0	0
1149766	2.157000e+00	2.332233e+02	2.657317e+01	0	0
1151719	2.157000e+00	2.443211e+02	4.278105e+01	0	0
1153672	2.157000e+00	2.521014e+02	6.945861e+00	0	0
1155625	2.157000e+00	2.484404e+02	-2.880595e+00	0	0
1157578	2.157000e+00	2.461684e+02	4.368069e+00	0	0
1159531	2.157000e+00	2.358756e+02	-3.490004e+01	0	0
1161484	2.157000e+00	2.338615e+02	-2.809970e+01	0	0
1163438	2.157000e+00	2.215825e+02	-2.314906e+00	0	0
1165391	2.157786e+00	1.917736e+02	1.162990e-01	0	0
1167344	2.157213e+00	1.930264e+02	1.069511e+00	0	0
1169297	2.157787e+00	1.942174e+02	-4.965342e+00	0	0
1171250	2.158000e+00	1.896540e+02	3.934050e+01	0	0
1173203	2.158000e+00	1.773000e+02	9.951625e+00	0	0
1175156	2.158000e+00	1.494075e+02	-4.127850e+00	0	0
1177109	2.158000e+00	1.172852e+02	4.713645e+00	0	0
1179063	2.158000e+00	9.040324e+01	-4.019678e+01	0	0
1181016	2.158000e+00	6.610614e+01	-1.086595e+01	0	0
1182969	2.158000e+00	4.978804e+01	8.814203e-01	0	0
1184922	2.158000e+00	2.629299e+01	-2.581642e+00	0	0
1186875	2.158000e+00	1.092937e+01	-1.390046e-01	0	0
1188828	2.158000e+00	-1.154022e+01	-5.584131e+00	0	0
1190781	2.158000e+00	-2.037518e+01	3.433392e+01	0	0
1192734	2.158000e+00	-2.186637e+01	8.509577e+00	0	0
1194688	2.158000e+00	-2.301200e+01	-3.202507e+00	0	0
1196641	2.158000e+00	-2.231448e+01	4.018731e+00	0	0
1198594	2.158000e+00	-3.294781e+01	-3.186183e+01	0	0
1200547	2.158000e+00	-4.868537e+01	-3.004517e+01	0	0
1202500	2.158000e+00	-6.252848e+01	-3.119075e+00	0	0
1204453	2.158000e+00	-6.911015e+01	3.873161e-01	0	0
1206406	2.158000e+00	-8.017136e+01	8.438635e-01	0	0
1208359	2.158000e+00	-7.737969e+01	-4.260167e+00	0	0
1210313	2.158000e+00	-6.829860e+01	3.523955e+01	0	0
1212266	2.158791e+00	-6.942999e+01	1.528746e+01	0	0
1214219	2.158209e+00	-6.716332e+01	-1.894222e+00	0	0
1216172	2.158000e+00	-7.101764e+01	4.607753e+00	0	0
1218125	2.158791e+00	-6.919770e+01	-3.549314e+01	0	0
1220078	2.158209e+00	-7.776721e+01	-3.096136e+01	0	0
1222031	2.158791e+00	-8.271925e+01	-1.151771e+00	0	0
1223984	2.159000e+00	-9.085514e+01	2.503253e+00	0	0
1225938	2.159000e+00	-9.224933e+01	3.408687e+00	0	0
1227891	2.159000e+00	-8.161342e+01	-2.753032e+00	0	0
1229844	2.159000e+00	-9.111809e+01	4.586629e+01	0	0
1231797	2.159000e+00	-8.939644e+01	2.718754e+01	0	0
1233750	2.159000e+00	-9.192002e+01	2.810789e+00	0	0
1235703	2.159000e+00	-7.511500e+01	-4.446119e-02	0	0
1237656	2.159000e+00	-7.069429e+01	5.534613e+00	0	0
1239609	2.159000e+00	-8.393377e+01	-4.586494e+01	0	0
1241563	2.159000e+00	-7.937607e+01	-2.806761e+01	0	0
1243516	2.159000e+00	-9.096222e+01	-1.060965e+00	0	0
1245469	2.159000e+00	-8.643672e+01	3.024825e-01	0	0
1247422	2.159000e+00	-9.752689e+01	3.629237e+00	0	0
1249375	2.159000e+00	-1.043402e+02	-2.109990e+00	0	0
1251328	2.159000e+00	-9.427362e+01	5.305791e+01	0	0
1253281	2.159000e+00	-8.508988e+01	1.674305e+01	0	0
1255234	2.159000e+00	-8.216580e+01	-1.541316e+00	0	0
1257188	2.159000e+00	-8.185076e+01	6.254339e+00	0	0
1259141	2.159000e+00	-7.888604e+01	-4.472651e+01	0	0
1261094	2.159000e+00	-8.681617e+01	-1.353063e+01	0	0
1263047	2.159000e+00	-8.993976e+01	4.072379e-02	0	0
1265000	2.159000e+00	-1.223985e+02	-6.305685e+00	0	0
1266953	2.159796e+00	-1.491393e+02	-6.323324e+00	0	0
1268906	2.160000e+00	-1.774841e+02	-1.190261e+01	0	0
1270859	2.160000e+00	-1.690574e+02	3.018004e+01	0	0
1272813	2.160000e+00	-1.489094e+02	6.144951e+00	0	0
1274766	2.160000e+00	-7.296153e+01	-5.108904e+00	0	0
1276719	2.160000e+00	6.995236e+00	2.382762e+00	0	0
1278672	2.160000e+00	9.561341e+01	-3.292976e+01	0	0
1280625	2.160000e+00	1.926283e+02	-1.839721e+01	0	0
1282578	2.160000e+00	3.269828e+02	-5.223953e-01	0	0
1284531	2.160000e+00	5.548902e+02	3.229963e-01	0	0
1286484	2.160000e+00	8.514894e+02	2.108840e+00	0	0
1288438	2.160000e+00	1.090436e+03	-2.891323e+00	0	0
1290391	2.160000e+00	1.374555e+03	3.311016e+01	0	0
1292344	2.160000e+00	1.657859e+03	7.638927e+00	0	0
1294297	2.160000e+00	1.901289e+03	-2.780794e+00	0	0
1296250	2.160000e+00	2.039971e+03	3.474996e+00	0	0
1298203	2.160000e+00	1.973515e+03	-2.996253e+01	0	0
1300156	2.160000e+00	1.800996e+03	-3.951368e+01	0	0
1302109	2.160000e+00	1.429848e+03	-5.544500e+00	0	0
1304063	2.160000e+00	1.149319e+03	2.520882e+00	0	0
1306016	2.160000e+00	9.142185e+02	2.562234e+00	0	0
1307969	2.160000e+00	7.089166e+02	-9.459715e-01	0	0
1309922	2.160000e+00	4.345677e+02	3.301382e+01	0	0
1311875	2.160000e+00	3.694090e+01	3.951413e+01	0	0
1313828	2.160000e+00	-2.070330e+02	5.911898e+00	0	0
1315781	2.160000e+00	-2.625342e+02	-1.930048e-01	0	0
1317734	2.160800e+00	-2.667458e+02	-7.384529e+00	0	0
1319688	2.161000e+00	-2.301817e+02	-3.561004e+01	0	0
1321641	2.161000e+00	-1.823040e+02	-2.562684e+01	0	0
1323594	2.161000e+00	-1.352620e+02	-2.251271e+00	0	0
1325547	2.161000e+00	-9.482543e+01	6.995914e-01	0	0
1327500	2.161000e+00	-6.149067e+01	-3.500554e-01	0	0
1329453	2.161000e+00	-2.738042e+01	7.628139e+00	0	0
1331406	2.161000e+00	-6.482107e+00	3.820491e+01	0	0
1333359	2.161000e+00	5.960680e-01	7.601296e+00	0	0
1335313	2.161000e+00	-2.267190e-01	-2.793533e+00	0	0
1337266	2.161000e+00	-6.220040e+00	4.175034e+00	0	0
1339219	2.161000e+00	-1.299858e+01	-3.538741e+01	0	0
1341172	2.161000e+00	-1.546788e+01	-1.434386e+01	0	0
1343125	2.161000e+00	-1.960401e+01	-9.406942e-01	0	0
1345078	2.161000e+00	-2.748964e+01	-2.603581e+00	0	0
1347031	2.161000e+00	-3.822637e+01	-1.072086e+00	0	0
1348984	2.161000e+00	-3.878651e+01	-5.822809e+00	0	0
1350938	2.161000e+00	-3.067524e+01	3.073755e+01	0	0
1352891	2.161000e+00	-1.904291e+01	6.162220e+00	0	0
1354844	2.161000e+00	-2.660707e+01	-3.275337e+00	0	0
1356797	2.161000e+00	-1.181341e+01	3.834523e+00	0	0
1358750	2.161000e+00	-1.675797e+01	-3.002608e+01	0	0
1360703	2.161000e+00	-1.137250e+01	-2.137079e+01	0	0
1362656	2.161804e+00	-1.907531e+01	-1.169466e+00	0	0
1364609	2.162000e+00	-2.226206e+01	2.385718e-01	0	0
1366563	2.162000e+00	-2.709363e+01	1.091212e+00	0	0
1368516	2.162000e+00	-1.495046e+01	-3.579196e+00	0	0
1370469	2.162000e+00	-2.243783e+01	3.258479e+01	0	0
1372422	2.162000e+00	-1.366356e+01	7.376336e+00	0	0
1374375	2.162000e+00	4.531427e+00	-2.258793e+00	0	0
1376328	2.162000e+00	-3.696575e+00	3.037668e+00	0	0
1378281	2.162000e+00	-2.284137e+00	-2.507766e+01	0	0
1380234	2.162000e+00	-5.759324e+00	-3.912139e+01	0	0
1382188	2.162000e+00	1.298645e+00	-1.147747e+01	0	0
1384141	2.162000e+00	5.209074e-02	2.117496e+00	0	0
1386094	2.162000e+00	-3.433400e+00	4.278256e+00	0	0
1388047	2.162000e+00	-1.045482e+01	-7.114695e-01	0	0
1390000	2.162000e+00	8.218146e+00	4.128785e+01	0	0
1391953	2.162000e+00	1.606149e+01	1.982352e+01	0	0
1393906	2.162000e+00	1.645065e+01	2.823780e+00	0	0
1395859	2.162000e+00	2.527562e+01	4.986409e+00	0	0
1397813	2.162000e+00	3.233423e+01	-1.536529e+01	0	0
1399766	2.162000e+00	2.467774e+01	-4.227480e+01	0	0
1401719	2.162000e+00	3.444908e+01	-2.812231e+01	0	0
1403672	2.162000e+00	3.626514e+01	-2.231064e+00	0	0
1405625	2.162808e+00	3.112197e+01	6.848461e-01	0	0
1407578	2.163000e+00	3.788777e+01	7.059439e-01	0	0
1409531	2.163000e+00	3.506208e+01	1.272197e+00	0	0
1411484	2.163000e+00	3.475847e+01	4.470199e+01	0	0
1413438	2.163000e+00	4.348081e+01	9.300728e+00	0	0
1415391	2.163000e+00	5.460378e+01	-4.478065e+00	0	0
1417344	2.163000e+00	6.692443e+01	3.433702e+00	0	0
1419297	2.163000e+00	6.301511e+01	-4.493411e+01	0	0
1421250	2.163000e+00	6.407640e+01	-1.250530e+01	0	0
1423203	2.163000e+00	6.276555e+01	-2.839143e+00	0	0
1425156	2.163000e+00	6.353710e+01	-6.493791e+00	0	0
1427109	2.163000e+00	6.308637e+01	-3.379149e+00	0	0
1429063	2.163000e+00	6.131092e+01	-6.650059e+00	0	0
1431016	2.163000e+00	7.079701e+01	3.644830e+01	0	0
1432969	2.163000e+00	8.088119e+01	8.158030e+00	0	0
1434922	2.163000e+00	9.115263e+01	-2.729638e+00	0	0
1436875	2.163000e+00	9.285800e+01	4.430337e+00	0	0
1438828	2.163000e+00	9.321808e+01	-3.446024e+01	0	0
1440781	2.163000e+00	8.596442e+01	-2.244431e+01	0	0
1442734	2.163812e+00	1.019533e+02	1.440193e+00	0	0
1444688	2.164000e+00	1.086230e+02	3.891961e+00	0	0
1446641	2.163188e+00	1.064466e+02	5.390196e+00	0	0
1448594	2.163813e+00	1.073030e+02	-1.611187e-01	0	0
1450547	2.164000e+00	1.337556e+02	4.059182e+01	0	0
1452500	2.164000e+00	1.327041e+02	8.800160e+00	0	0
1454453	2.164000e+00	1.298846e+02	-2.360289e+00	0	0
1456406	2.164000e+00	1.328335e+02	5.704900e+00	0	0
1458359	2.164000e+00	1.384737e+02	-3.541842e+01	0	0
1460313	2.164000e+00	1.472300e+02	-2.035602e+01	0	0
1462266	2.164000e+00	1.422575e+02	1.193343e+00	0	0
1464219	2.164000e+00	1.470541e+02	2.071139e+00	0	0
1466172	2.164000e+00	1.533968e+02	2.383919e+00	0	0
1468125	2.164000e+00	1.694070e+02	-3.722839e+00	0	0
1470078	2.164000e+00	1.713486e+02	3.610807e+01	0	0
1472031	2.164000e+00	1.802996e+02	2.700180e+01	0	0
1473984	2.164000e+00	1.832677e+02	1.760252e+00	0	0
1475938	2.164000e+00	1.999840e+02	1.097855e+00	0	0
1477891	2.164000e+00	2.117474e+02	-1.789094e+01	0	0
1479844	2.164000e+00	2.108071e+02	-4.520336e+01	0	0
1481797	2.164000e+00	2.271065e+02	-1.326237e+01	0	0
1483750	2.164000e+00	2.392841e+02	7.155928e-01	0	0
1485703	2.164000e+00	2.390887e+02	5.288248e-01	0	0
1487656	2.164816e+00	2.321966e+02	1.541356e+00	0	0
1489609	2.165000e+00	2.511617e+02	6.613978e+00	0	0
1491563	2.165000e+00	2.658951e+02	4.770101e+01	0	0
1493516	2.165000e+00	2.823204e+02	8.999547e+00	0	0
1495469	2.165000e+00	2.970572e+02	-3.351775e+00	0	0
1497422	2.165000e+00	3.088556e+02	5.569450e+00	0	0
1499375	2.165000e+00	3.159593e+02	-4.445798e+01	0	0
1501328	2.165000e+00	3.230461e+02	-1.510703e+01	0	0
1503281	2.165000e+00	3.381730e+02	4.557310e-01	0	0
1505234	2.165000e+00	3.449903e+02	-1.512279e+00	0	0
1507188	2.165000e+00	3.523690e+02	6.396548e-01	0	0
1509141	2.165000e+00	3.702280e+02	-4.984680e+00	0	0
1511094	2.165000e+00	3.914388e+02	3.946724e+01	0	0
1513047	2.165000e+00	3.991491e+02	7.959824e+00	0	0
1515000	2.165000e+00	4.170778e+02	-3.019595e+00	0	0
1516953	2.165000e+00	4.340554e+02	4.495034e+00	0	0
1518906	2.165000e+00	4.450173e+02	-3.663725e+01	0	0
1520859	2.165000e+00	4.512099e+02	-1.814578e+01	0	0
1522813	2.165000e+00	4.668589e+02	-6.482452e-02	0	0
1524766	2.165000e+00	4.698122e+02	-1.990513e-01	0	0
1526719	2.165820e+00	4.800477e+02	1.137748e+00	0	0
1528672	2.166000e+00	4.856026e+02	-4.044755e+00	0	0
1530625	2.166000e+00	5.082695e+02	3.725238e+01	0	0
1532578	2.166000e+00	5.140432e+02	7.428480e+00	0	0
1534531	2.166000e+00	5.230908e+02	-2.342597e+00	0	0
1536484	2.166000e+00	5.576779e+02	2.319181e+00	0	0
1538438	2.166000e+00	5.613426e+02	-2.240803e+01	0	0
1540391	2.166000e+00	5.630153e+02	-4.238094e+01	0	0
1542344	2.166000e+00	5.658591e+02	-5.834657e+00	0	0
1544297	2.166000e+00	5.720807e+02	1.241942e+00	0	0
1546250	2.166000e+00	5.876325e+02	7.129631e-01	0	0
1548203	2.166000e+00	5.858011e+02	-3.144024e+00	0	0
1550156	2.166000e+00	5.984280e+02	3.637565e+01	0	0
1552109	2.166000e+00	6.006579e+02	2.446009e+01	0	0
1554063	2.166000e+00	6.054002e+02	6.157991e-01	0	0
1556016	2.166000e+00	5.944596e+02	2.817639e+00	0	0
1557969	2.166000e+00	5.876110e+02	-3.426583e+01	0	0
1559922	2.166000e+00	5.677216e+02	-4.561509e+01	0	0
1561875	2.166000e+00	5.353777e+02	-2.592936e+01	0	0
1563828	2.166000e+00	5.174406e+02	-2.510055e+00	0	0
1565781	2.166000e+00	4.828297e+02	1.180426e+00	0	0
1567734	2.166823e+00	4.656104e+02	-2.359918e+00	0	0
1569688	2.167000e+00	4.378938e+02	2.749614e+01	0	0
1571641	2.167000e+00	4.276484e+02	5.148096e+01	0	0
1573594	2.167000e+00	3.946435e+02	7.360744e+00	0	0
1575547	2.167000e+00	3.715203e+02	-3.087873e+00	0	0
1577500	2.167000e+00	3.393559e+02	5.152797e+00	0	0
1579453	2.167000e+00	3.107844e+02	-4.581649e+01	0	0
1581406	2.167000e+00	2.794449e+02	-1.643146e+01	0	0
1583359	2.167000e+00	2.453656e+02	9.083616e-01	0	0
1585313	2.167000e+00	2.216733e+02	-5.737379e-01	0	0
1587266	2.167000e+00	1.981696e+02	1.315161e+00	0	0
1589219	2.167000e+00	1.766125e+02	-4.716165e+00	0	0
1591172	2.167000e+00	1.581260e+02	4.380240e+01	0	0
1593125	2.167000e+00	1.467543e+02	8.484109e+00	0	0
1595078	2.167000e+00	1.462961e+02	-3.092706e+00	0	0
1597031	2.167000e+00	1.335672e+02	4.648558e+00	0	0
1598984	2.167000e+00	1.140675e+02	-3.945705e+01	0	0
1600938	2.167000e+00	9.466139e+01	-1.640043e+01	0	0
1602891	2.167000e+00	6.807457e+01	3.383948e-01	0	0
1604844	2.167000e+00	6.052709e+01	-3.557606e-01	0	0
1606797	2.167827e+00	5.420452e+01	9.991799e-01	0	0
1608750	2.168000e+00	4.660994e+01	-3.676330e+00	0	0
1610703	2.168000e+00	4.033420e+01	3.443770e+01	0	0
1612656	2.168000e+00	3.154970e+01	6.586567e+00	0	0
1614609	2.168000e+00	3.448042e+01	-2.468929e+00	0	0
1616563	2.168000e+00	4.208329e+01	3.432534e+00	0	0
1618516	2.168000e+00	4.012803e+01	-3.110391e+01	0	0
1620469	2.168000e+00	3.615419e+01	-2.303551e+01	0	0
1622422	2.168000e+00	1.559278e+01	-1.510374e+00	0	0
1624375	2.168000e+00	1.271726e+01	1.496688e-01	0	0
1626328	2.168000e+00	1.951513e+01	7.743755e-01	0	0
1628281	2.168000e+00	6.995238e+00	-3.292069e+00	0	0
1630234	2.168000e+00	1.936911e+01	3.163861e+01	0	0
1632188	2.168000e+00	2.194491e+01	8.047246e+00	0	0
1634141	2.168000e+00	1.353066e+01	-1.562109e+00	0	0
1636094	2.168000e+00	1.980537e+01	1.888943e+00	0	0
1638047	2.168000e+00	1.538325e+01	-2.002579e+01	0	0
1640000	2.168000e+00	1.115462e+01	-3.528589e+01	0	0
1641953	2.168000e+00	9.945324e+00	-1.269559e+01	0	0
1643906	2.168830e+00	1.744844e+01	-2.867644e-01	0	0
1645859	2.168170e+00	1.191790e+01	2.148237e-01	0	0
1647813	2.168000e+00	7.477544e+00	-6.716760e-01	0	0
1649766	2.168831e+00	6.133344e+00	1.154857e+01	0	0
1651719	2.169000e+00	1.710509e+01	3.584752e+01	0	0
1653672	2.169000e+00	1.638188e+01	5.501209e+00	0	0
1655625	2.169000e+00	1.754353e+01	-2.246945e+00	0	0
1657578	2.169000e+00	2.485246e+01	3.591834e+00	0	0
1659531	2.169000e+00	1.664065e+01	-3.356332e+01	0	0
1661484	2.169000e+00	1.185955e+01	-2.205919e+01	0	0
1663438	2.169000e+00	6.979561e+00	-1.124397e+00	0	0
1665391	2.169000e+00	-2.006262e+00	8.417429e-04	0	0
1667344	2.169000e+00	-7.122501e+00	9.656602e-01	0	0
1669297	2.169000e+00	-5.502428e+00	-3.938989e+00	0	0
1671250	2.169000e+00	8.031228e+00	3.793064e+01	0	0
1673203	2.169000e+00	1.968821e+01	7.043118e+00	0	0
1675156	2.169000e+00	2.190756e+01	-2.812036e+00	0	0
1677109	2.169000e+00	2.839648e+01	4.312716e+00	0	0
1679063	2.169000e+00	2.119014e+01	-3.789435e+01	0	0
1681016	2.169000e+00	1.305489e+01	-1.119702e+01	0	0
1682969	2.169000e+00	9.932753e+00	1.025450e+00	0	0
1684922	2.169000e+00	6.279693e+00	-5.478312e-01	0	0
1686875	2.169833e+00	-3.709497e+00	1.049726e+00	0	0
1688828	2.170000e+00	2.601023e+00	-3.746785e+00	0	0
1690781	2.170000e+00	8.995409e+00	3.587888e+01	0	0
1692734	2.170000e+00	1.365833e+01	6.526151e+00	0	0
1694688	2.170000e+00	1.110768e+01	-2.426412e+00	0	0
1696641	2.170000e+00	9.185321e+00	3.272692e+00	0	0
1698594	2.170000e+00	2.074626e+01	-3.175982e+01	0	0
1700547	2.170000e+00	4.658585e+00	-3.031878e+01	0	0
1702500	2.170000e+00	1.104502e+01	-2.674845e+00	0	0
1704453	2.170000e+00	1.368731e+01	4.684942e-01	0	0
1706406	2.170000e+00	1.453712e+00	5.655187e-01	0	0
1708359	2.170000e+00	4.744707e+00	-2.849078e+00	0	0
1710313	2.170000e+00	1.032834e+01	3.086065e+01	0	0
1712266	2.170000e+00	1.380074e+01	2.310336e+01	0	0
1714219	2.170000e+00	1.345782e+01	7.591929e-01	0	0
1716172	2.170000e+00	1.410170e+01	2.320326e+00	0	0
1718125	2.170000e+00	1.217574e+01	-3.080130e+01	0	0
1720078	2.170000e+00	9.261304e+00	-3.187390e+01	0	0
1722031	2.170000e+00	4.986950e+00	-2.945751e+00	0	0
1723984	2.170000e+00	9.866172e+00	5.293668e-01	0	0
1725938	2.170000e+00	8.962087e+00	5.612208e-01	0	0
1727891	2.170837e+00	8.103523e+00	-2.916695e+00	0	0
1729844	2.171000e+00	8.809082e+00	3.505469e+01	0	0
1731797	2.171000e+00	1.214196e+01	4.428153e+01	0	0
1733750	2.171000e+00	9.564553e+00	4.968364e+00	0	0
1735703	2.171000e+00	1.293944e+01	-2.240018e+00	0	0
1737656	2.171000e+00	1.927865e+01	4.004492e+00	0	0
1739609	2.171000e+00	1.628539e+01	-4.037033e+01	0	0
1741563	2.171000e+00	1.611877e+01	-3.056745e+01	0	0
1743516	2.171000e+00	1.403953e+01	-2.020652e+00	0	0
1745469	2.171000e+00	1.196936e+01	1.860588e-01	0	0
1747422	2.171000e+00	9.988693e+00	9.952993e-01	0	0
1749375	2.171000e+00	1.272779e+01	-4.343989e+00	0	0
1751328	2.171000e+00	9.624764e+00	4.303489e+01	0	0
1753281	2.171000e+00	1.837745e+01	7.598601e+00	0	0
1755234	2.171000e+00	1.900756e+01	-3.045365e+00	0	0
1757188	2.171000e+00	1.609904e+01	4.575249e+00	0	0
1759141	2.171000e+00	1.044989e+01	-4.078307e+01	0	0
1761094	2.171000e+00	9.969834e+00	-6.868854e+00	0	0
1763047	2.171840e+00	1.002037e+01	1.810217e+00	0	0
1765000	2.172000e+00	3.571966e+00	-7.574815e-01	0	0
1766953	2.172000e+00	3.877197e+00	1.012617e+00	0	0
1768906	2.172000e+00	2.787980e+00	-3.503253e+00	0	0
1770859	2.172000e+00	8.988540e+00	3.416780e+01	0	0
1772813	2.172000e+00	-1.078056e+00	5.873882e+00	0	0
1774766	2.172000e+00	5.569945e+00	-2.205945e+00	0	0
1776719	2.172000e+00	2.150840e+01	2.873697e+00	0	0
1778672	2.172000e+00	1.099366e+01	-3.024000e+01	0	0
1780625	2.172000e+00	8.225526e+00	-3.551375e+01	0	0
1782578	2.172000e+00	-7.014675e-01	-3.536572e+00	0	0
1784531	2.172000e+00	-1.295772e+01	6.329668e-01	0	0
1786484	2.172000e+00	-6.752737e+00	6.322149e-01	0	0
1788438	2.172000e+00	-2.956878e+00	-3.399586e+00	0	0
1790391	2.172000e+00	1.046223e+00	3.491673e+01	0	0
1792344	2.172000e+00	-7.344541e+00	9.215254e+00	0	0
1794297	2.172000e+00	-2.349309e+00	-1.917398e+00	0	0
1796250	2.172000e+00	1.235701e+01	3.470805e+00	0	0
1798203	2.172000e+00	4.929641e+00	-3.630698e+01	0	0
1800156	2.172000e+00	-1.878793e+00	-2.813901e+01	0	0
1802109	2.172842e+00	-5.576604e+00	-4.282821e+00	0	0
1804063	2.172157e+00	-6.790221e+00	-1.581749e-01	0	0
1806016	2.172843e+00	-8.024638e+00	7.956745e-01	0	0
1807969	2.173000e+00	-5.986518e+00	-3.318001e+00	0	0
1809922	2.173000e+00	4.875185e+00	3.915789e+01	0	0
1811875	2.173000e+00	-7.099316e+00	4.311869e+01	0	0
1813828	2.173000e+00	-1.292883e+01	4.347568e+00	0	0
1815781	2.173000e+00	7.326896e+00	-2.248844e+00	0	0
1817734	2.173000e+00	1.231680e+01	4.389314e+00	0	0
1819688	2.173000e+00	1.869862e+00	-4.361694e+01	0	0
1821641	2.173000e+00	3.595672e+00	-1.327226e+01	0	0
1823594	2.173000e+00	-5.828017e+00	8.442773e-01	0	0
1825547	2.173000e+00	-1.248716e+01	-6.862969e-01	0	0
1827500	2.173000e+00	-9.470154e+00	1.052506e+00	0	0
1829453	2.173000e+00	-1.514408e+01	-4.410876e+00	0	0
1831406	2.173000e+00	-1.125247e+01	4.307322e+01	0	0
1833359	2.173000e+00	-7.082238e+00	7.109359e+00	0	0
1835313	2.173000e+00	3.503287e+00	-3.035536e+00	0	0
1837266	2.173000e+00	-3.172948e+00	4.179864e+00	0	0
1839219	2.173000e+00	-7.476858e+00	-4.072926e+01	0	0
1841172	2.173000e+00	-4.173261e+00	-1.179129e+01	0	0
1843125	2.173000e+00	-1.370250e+01	3.644783e-01	0	0
1845078	2.173846e+00	-3.217960e+00	-1.308705e+00	0	0
1847031	2.174000e+00	-9.048285e+00	2.427505e-01	0	0
1848984	2.174000e+00	-7.519456e-01	-4.200723e+00	0	0
1850938	2.174000e+00	-1.323370e+01	3.585607e+01	0	0
1852891	2.174000e+00	-8.157990e+00	5.812810e+00	0	0
1854844	2.174000e+00	-1.497775e-01	-2.418870e+00	0	0
1856797	2.174000e+00	-9.016679e+00	3.124317e+00	0	0
1858750	2.174000e+00	-8.595383e+00	-3.392373e+01	0	0
1860703	2.174000e+00	-2.345947e+01	-3.080754e+01	0	0
1862656	2.174000e+00	-2.547644e+01	-2.500152e+00	0	0
1864609	2.174000e+00	-3.177152e+01	2.892951e-01	0	0
1866563	2.174000e+00	-3.376141e+01	7.282126e-01	0	0
1868516	2.174000e+00	-2.622257e+01	-3.575650e+00	0	0
1870469	2.174000e+00	-1.245630e+01	3.787648e+01	0	0
1872422	2.174000e+00	-1.593666e+01	6.285017e+00	0	0
1874375	2.174000e+00	1.400709e+01	-1.744699e+00	0	0
1876328	2.174000e+00	5.964118e+00	4.492271e+00	0	0
1878281	2.174000e+00	2.912494e+00	-3.444240e+01	0	0
1880234	2.174000e+00	8.912747e+00	-3.417073e+01	0	0
1882188	2.174000e+00	1.851472e+01	-9.561830e-01	0	0
1884141	2.174849e+00	2.534509e+01	2.817869e+00	0	0
1886094	2.175000e+00	3.901154e+01	2.850980e+00	0	0
1888047	2.175000e+00	7.616120e+01	-7.713809e-01	0	0
1890000	2.175000e+00	1.049848e+02	3.825357e+01	0	0
1891953	2.175000e+00	1.172433e+02	3.733283e+01	0	0
1893906	2.175000e+00	1.278813e+02	3.957770e+00	0	0
1895859	2.175000e+00	1.410621e+02	-3.201284e-01	0	0
1897813	2.175000e+00	1.438740e+02	-8.054778e+00	0	0
1899766	2.175000e+00	1.364784e+02	-4.081073e+01	0	0
1901719	2.175000e+00	1.359688e+02	-2.401719e+01	0	0
1903672	2.175000e+00	1.375550e+02	-1.293589e+00	0	0
1905625	2.175000e+00	1.315049e+02	-5.146254e-02	0	0
1907578	2.175000e+00	1.507543e+02	9.111518e-01	0	0
1909531	2.175000e+00	1.701509e+02	-4.120432e+00	0	0
1911484	2.175000e+00	1.745471e+02	4.264705e+01	0	0
1913438	2.175000e+00	1.839947e+02	6.738097e+00	0	0
1915391	2.175000e+00	2.037071e+02	-2.832935e+00	0	0
1917344	2.175000e+00	1.991725e+02	3.794900e+00	0	0
1919297	2.175000e+00	1.985021e+02	-4.320685e+01	0	0
1921250	2.175852e+00	2.036819e+02	-8.062472e+00	0	0
1923203	2.176000e+00	2.315702e+02	-2.751013e-01	0	0
1925156	2.176000e+00	2.281844e+02	-2.830330e+00	0	0
1927109	2.176000e+00	2.247096e+02	-1.046672e+00	0	0
1929063	2.176000e+00	2.171036e+02	-5.389152e+00	0	0
1931016	2.176000e+00	2.183928e+02	3.515307e+01	0	0
1932969	2.176000e+00	2.265241e+02	4.579377e+00	0	0
1934922	2.176000e+00	2.261769e+02	-2.834308e+00	0	0
1936875	2.176000e+00	2.099631e+02	2.928649e+00	0	0
1938828	2.176000e+00	2.024270e+02	-3.311575e+01	0	0
1940781	2.176000e+00	1.909509e+02	-3.059191e+01	0	0
1942734	2.176000e+00	1.872232e+02	-2.449988e+00	0	0
1944688	2.176000e+00	1.779930e+02	2.876195e-01	0	0
1946641	2.176000e+00	1.534658e+02	5.706725e-01	0	0
1948594	2.176000e+00	1.283808e+02	-3.209592e+00	0	0
1950547	2.176000e+00	9.286963e+01	3.500934e+01	0	0
1952500	2.176000e+00	7.568260e+01	1.327864e+01	0	0
1954453	2.176000e+00	5.345789e+01	-1.204553e+00	0	0
1956406	2.176000e+00	4.196759e+01	3.131867e+00	0	0
1958359	2.176855e+00	4.204558e+01	-3.605310e+01	0	0
1960313	2.176145e+00	1.168137e+01	-1.652255e+01	0	0
1962266	2.176000e+00	-9.579139e+00	2.747658e-01	0	0
1964219	2.176855e+00	-2.252025e+01	5.045706e-01	0	0
1966172	2.177000e+00	-4.274657e+01	1.674890e+00	0	0
1968125	2.177000e+00	-4.687458e+01	-2.374999e+00	0	0
1970078	2.177000e+00	-4.993404e+01	3.831648e+01	0	0
1972031	2.177000e+00	-5.208439e+01	2.354394e+01	0	0
1973984	2.177000e+00	-6.538551e+01	1.031399e+00	0	0
1975938	2.177000e+00	-5.936298e+01	-2.401548e-01	0	0
1977891	2.177000e+00	-7.613136e+01	-8.365575e+00	0	0
1979844	2.177000e+00	-8.082110e+01	-4.227139e+01	0	0
1981797	2.177000e+00	-8.510946e+01	-1.553189e+01	0	0
1983750	2.177000e+00	-8.308147e+01	-2.824948e-02	0	0
1985703	2.177000e+00	-8.639670e+01	-2.008179e-01	0	0
1987656	2.177000e+00	-1.007382e+02	2.162157e+00	0	0
1989609	2.177000e+00	-1.068162e+02	-2.259031e+00	0	0
1991563	2.177000e+00	-9.759780e+01	4.427159e+01	0	0
1993516	2.177000e+00	-8.671101e+01	6.629267e+00	0	0
1995469	2.177000e+00	-9.679287e+01	-2.770123e+00	0	0
1997422	2.177000e+00	-9.965311e+01	3.986872e+00	0	0
1999375	2.177858e+00	-1.059244e+02	-4.120433e+01	0	0
2001328	2.178000e+00	-1.199273e+02	-1.064208e+01	0	0
2003281	2.178000e+00	-1.205351e+02	-5.536074e-01	0	0
2005234	2.178000e+00	-1.279203e+02	-3.794725e+00	0	0
2007188	2.178000e+00	-1.304320e+02	-2.913349e+00	0	0
2009141	2.178000e+00	-1.324237e+02	-6.299492e+00	0	0
2011094	2.178000e+00	-1.256542e+02	3.553963e+01	0	0
2013047	2.178000e+00	-1.290221e+02	5.280837e+00	0	0
2015000	2.178000e+00	-1.214795e+02	-2.265860e+00	0	0
2016953	2.178000e+00	-1.229960e+02	3.031129e+00	0	0
2018906	2.178000e+00	-1.305640e+02	-3.393693e+01	0	0
2020859	2.178000e+00	-1.176096e+02	-2.065553e+01	0	0
2022813	2.178000e+00	-1.255897e+02	-1.397530e-01	0	0
2024766	2.178000e+00	-1.262709e+02	1.895549e+00	0	0
2026719	2.178000e+00	-1.261448e+02	3.326715e+00	0	0
2028672	2.178000e+00	-1.221217e+02	-9.550581e-01	0	0
2030625	2.178000e+00	-1.148571e+02	3.770914e+01	0	0
2032578	2.178000e+00	-1.121805e+02	5.312824e+00	0	0
2034531	2.178861e+00	-9.649570e+01	-2.263798e+00	0	0
2036484	2.178139e+00	-1.206189e+02	3.183152e+00	0	0
2038438	2.178861e+00	-1.277021e+02	-3.358103e+01	0	0
2040391	2.179000e+00	-1.705288e+02	-3.160225e+01	0	0
2042344	2.179000e+00	-2.002120e+02	-1.685865e+00	0	0
2044297	2.179000e+00	-1.862386e+02	1.203814e+00	0	0
2046250	2.179000e+00	-1.833900e+02	4.749199e-01	0	0
2048203	2.179000e+00	-1.033707e+02	-2.310243e+00	0	0
2050156	2.179000e+00	-4.290697e+01	3.125249e+01	0	0
2052109	2.179000e+00	6.394387e+01	3.707394e+01	0	0
2054063	2.179000e+00	1.532792e+02	2.643837e+00	0	0
2056016	2.179000e+00	2.755018e+02	6.007985e-01	0	0
2057969	2.179000e+00	4.629846e+02	-2.409623e+01	0	0
2059922	2.179000e+00	7.465664e+02	-3.810674e+01	0	0
2061875	2.179000e+00	1.003045e+03	-5.203037e+00	0	0
2063828	2.179000e+00	1.278059e+03	5.840832e-01	0	0
2065781	2.179000e+00	1.551174e+03	-2.379112e-01	0	0
2067734	2.179000e+00	1.795591e+03	-6.716882e-01	0	0
2069688	2.179864e+00	1.938480e+03	1.252483e+01	0	0
2071641	2.179136e+00	1.879115e+03	3.816875e+01	0	0
2073594	2.179000e+00	1.774552e+03	4.448225e+00	0	0
2075547	2.179864e+00	1.469015e+03	-2.177678e+00	0	0
2077500	2.180000e+00	1.149508e+03	3.286582e+00	0	0
2079453	2.180000e+00	8.975059e+02	-3.681306e+01	0	0
2081406	2.180000e+00	7.233852e+02	-9.780205e+00	0	0
2083359	2.180000e+00	5.105122e+02	-5.799893e-01	0	0
2085313	2.180000e+00	1.291437e+02	-2.238858e+00	0	0
2087266	2.180000e+00	-1.744657e+02	-1.161062e+00	0	0
2089219	2.180000e+00	-2.703326e+02	-5.294285e+00	0	0
2091172	2.180000e+00	-2.960052e+02	3.328646e+01	0	0
2093125	2.180000e+00	-2.659691e+02	2.928787e+00	0	0
2095078	2.180000e+00	-2.240218e+02	-3.991189e+00	0	0
2097031	2.180000e+00	-1.965698e+02	1.668773e+00	0	0
2098984	2.180000e+00	-1.542122e+02	-3.624752e+01	0	0
2100938	2.180000e+00	-1.158582e+02	-9.395570e+00	0	0
2102891	2.180000e+00	-7.738632e+01	5.194106e-01	0	0
2104844	2.180866e+00	-7.457944e+01	-6.069997e-01	0	0
2106797	2.180134e+00	-5.083779e+01	6.842400e-01	0	0
2108750	2.180867e+00	-5.237189e+01	-3.318345e+00	0	0
2110703	2.181000e+00	-5.654797e+01	3.568641e+01	0	0
2112656	2.181000e+00	-5.729460e+01	5.339260e+00	0	0
2114609	2.181000e+00	-6.429541e+01	-2.117576e+00	0	0
2116563	2.181000e+00	-6.603632e+01	2.790272e+00	0	0
2118516	2.181000e+00	-6.594964e+01	-3.534979e+01	0	0
2120469	2.181000e+00	-5.285199e+01	-2.789889e+01	0	0
2122422	2.181000e+00	-6.572263e+01	-1.467484e+00	0	0
2124375	2.181000e+00	-6.498774e+01	9.524730e-01	0	0
2126328	2.181000e+00	-6.746399e+01	1.934968e+00	0	0
2128281	2.181000e+00	-7.807141e+01	-1.924113e+00	0	0
2130234	2.181000e+00	-6.055902e+01	4.061013e+01	0	0
2132188	2.181000e+00	-6.737044e+01	6.778480e+00	0	0
2134141	2.181000e+00	-7.257264e+01	-7.524972e-01	0	0
2136094	2.181000e+00	-5.934965e+01	3.646985e+00	0	0
2138047	2.181869e+00	-6.199231e+01	-3.405563e+01	0	0
2140000	2.182000e+00	-7.005969e+01	-4.333765e+01	0	0
2141953	2.181131e+00	-8.005960e+01	-2.248470e+01	0	0
2143906	2.181869e+00	-7.106243e+01	-2.659664e-01	0	0
2145859	2.182000e+00	-6.082023e+01	1.456164e-01	0	0
2147813	2.182000e+00	-6.515760e+01	1.791900e-01	0	0
2149766	2.182000e+00	-5.831530e+01	1.595706e+00	0	0
2151719	2.182000e+00	-4.214926e+01	4.510757e+01	0	0
2153672	2.182000e+00	-5.528920e+01	5.636415e+00	0	0
2155625	2.182000e+00	-6.247127e+01	-2.830268e+00	0	0
2157578	2.182000e+00	-5.441704e+01	1.826799e+00	0	0
2159531	2.182000e+00	-5.895301e+01	-4.835008e+01	0	0
2161484	2.182000e+00	-5.727057e+01	-1.236641e+01	0	0
2163438	2.182000e+00	-5.663879e+01	-1.328799e+00	0	0
2165391	2.182000e+00	-5.374485e+01	-1.249789e+00	0	0
2167344	2.182000e+00	-6.302998e+01	8.154103e-01	0	0
2169297	2.182000e+00	-7.072096e+01	-3.852828e+00	0	0
2171250	2.182000e+00	-5.420508e+01	4.236789e+01	0	0
2173203	2.182000e+00	-4.991718e+01	5.429556e+00	0	0
2175156	2.182000e+00	-4.606412e+01	-2.468465e+00	0	0
2177109	2.182872e+00	-3.468297e+01	3.079069e+00	0	0
2179063	2.183000e+00	-4.030083e+01	-3.911898e+01	0	0
2181016	2.183000e+00	-3.466897e+01	-2.647981e+01	0	0
2182969	2.183000e+00	-4.358936e+01	-1.519606e+00	0	0
2184922	2.183000e+00	-5.091655e+01	-1.036216e-01	0	0
2186875	2.183000e+00	-2.893797e+01	5.018825e-01	0	0
2188828	2.183000e+00	-4.640744e+01	-3.369601e+00	0	0
2190781	2.183000e+00	-2.913479e+01	3.735836e+01	0	0
2192734	2.183000e+00	-2.674283e+01	4.696673e+00	0	0
2194688	2.183000e+00	-1.293982e+01	-2.214475e+00	0	0
2196641	2.183000e+00	-3.447969e+00	2.722456e+00	0	0
2198594	2.183000e+00	-1.524771e+01	-3.498175e+01	0	0
2200547	2.183000e+00	-1.677146e+01	-2.010309e+01	0	0
2202500	2.183000e+00	-3.067774e+01	-9.644291e-01	0	0
2204453	2.183874e+00	-2.217005e+01	-2.299513e-01	0	0
2206406	2.184000e+00	-3.009121e+01	2.681764e-01	0	0
2208359	2.184000e+00	-2.775558e+01	-2.433200e+00	0	0
2210313	2.184000e+00	-2.451493e+01	3.141524e+01	0	0
2212266	2.184000e+00	-2.595520e+00	3.274912e+01	0	0
2214219	2.184000e+00	-1.754816e+00	1.539927e+00	0	0
2216172	2.184000e+00	1.490221e+01	1.414080e+00	0	0
2218125	2.184000e+00	1.911099e+01	-3.267567e+01	0	0
2220078	2.184000e+00	1.861729e+01	-2.841640e+01	0	0
2222031	2.184000e+00	2.167227e+01	-2.032811e+00	0	0
2223984	2.184000e+00	1.534093e+01	2.521545e-02	0	0
2225938	2.184000e+00	3.752341e-01	2.371970e-01	0	0
2227891	2.184000e+00	-1.152471e+01	-2.615476e+00	0	0
2229844	2.184000e+00	1.428282e+01	3.528253e+01	0	0
2231797	2.184000e+00	2.353739e+01	3.994066e+01	0	0
2233750	2.184000e+00	3.075054e+01	3.045200e+00	0	0
2235703	2.184876e+00	3.046379e+01	-1.892647e+00	0	0
2237656	2.185000e+00	5.611026e+01	2.908970e+00	0	0
2239609	2.185000e+00	5.272390e+01	-4.011870e+01	0	0
2241563	2.185000e+00	4.536490e+01	-2.312332e+01	0	0
2243516	2.185000e+00	5.070552e+01	-1.080130e+00	0	0
2245469	2.185000e+00	4.565572e+01	-3.295854e-01	0	0
2247422	2.185000e+00	6.284953e+01	5.406310e-01	0	0
2249375	2.185000e+00	6.581092e+01	-3.680648e+00	0	0
2251328	2.185000e+00	7.856156e+01	4.153265e+01	0	0
2253281	2.185000e+00	9.279755e+01	4.971788e+00	0	0
2255234	2.185000e+00	1.003626e+02	-2.540018e+00	0	0
2257188	2.185000e+00	1.061259e+02	3.301855e+00	0	0
2259141	2.185000e+00	1.120705e+02	-4.107021e+01	0	0
2261094	2.185879e+00	1.179211e+02	-5.188789e+00	0	0
2263047	2.186000e+00	1.191728e+02	9.867683e-01	0	0
2265000	2.186000e+00	1.232889e+02	-8.947694e-01	0	0
2266953	2.186000e+00	1.436411e+02	5.097507e-01	0	0
2268906	2.186000e+00	1.465583e+02	-3.250998e+00	0	0
2270859	2.186000e+00	1.557475e+02	3.547759e+01	0	0
2272813	2.186000e+00	1.716743e+02	4.043539e+00	0	0
2274766	2.186000e+00	1.889240e+02	-2.090143e+00	0	0
2276719	2.186000e+00	1.929716e+02	2.179954e+00	0	0
2278672	2.186000e+00	1.935209e+02	-3.288349e+01	0	0
2280625	2.186000e+00	2.005248e+02	-2.693832e+01	0	0
2282578	2.186000e+00	2.154673e+02	-1.924463e+00	0	0
2284531	2.186000e+00	2.305931e+02	-1.576010e-01	0	0
2286484	2.186000e+00	2.294437e+02	2.209425e-01	0	0
2288438	2.186881e+00	2.425526e+02	-3.019791e+00	0	0
2290391	2.187000e+00	2.596986e+02	3.410319e+01	0	0
2292344	2.186119e+00	2.713498e+02	8.193345e+00	0	0
2294297	2.186881e+00	2.872147e+02	-1.437396e+00	0	0
2296250	2.187000e+00	3.033888e+02	1.573447e+00	0	0
2298203	2.187000e+00	3.178533e+02	-3.013638e+01	0	0
2300156	2.187000e+00	3.105435e+02	-4.204354e+01	0	0
2302109	2.187000e+00	3.210372e+02	-1.295647e+01	0	0
2304063	2.187000e+00	3.348800e+02	-6.984958e-01	0	0
2306016	2.187000e+00	3.314699e+02	2.767692e-01	0	0
2307969	2.187000e+00	3.516497e+02	-2.739048e+00	0	0
2309922	2.187000e+00	3.540891e+02	3.781879e+01	0	0
2311875	2.187000e+00	3.743359e+02	4.858231e+01	0	0
2313828	2.187000e+00	3.869730e+02	3.712019e+00	0	0
2315781	2.187000e+00	4.014772e+02	-2.626705e+00	0	0
2317734	2.187000e+00	4.016986e+02	2.757624e+00	0	0
2319688	2.187883e+00	4.074180e+02	-4.591071e+01	0	0
2321641	2.188000e+00	4.044313e+02	-6.068710e+00	0	0
2323594	2.188000e+00	4.224279e+02	8.586030e-01	0	0
2325547	2.188000e+00	4.073124e+02	-9.469780e-01	0	0
2327500	2.188000e+00	4.079148e+02	5.894403e-01	0	0
2329453	2.188000e+00	4.197451e+02	-3.531782e+00	0	0
2331406	2.188000e+00	4.035524e+02	4.041581e+01	0	0
2333359	2.188000e+00	3.995945e+02	4.480924e+00	0	0
2335313	2.188000e+00	3.888903e+02	-2.281993e+00	0	0
2337266	2.188000e+00	3.637891e+02	2.735661e+00	0	0
2339219	2.188000e+00	3.346086e+02	-3.801264e+01	0	0
2341172	2.188000e+00	3.267959e+02	-1.579653e+01	0	0
2343125	2.188885e+00	2.918360e+02	-3.843059e-01	0	0
2345078	2.189000e+00	2.723575e+02	-2.844814e-01	0	0
2347031	2.189000e+00	2.313187e+02	8.768160e-01	0	0
2348984	2.189000e+00	2.154643e+02	-2.700300e+00	0	0
2350938	2.189000e+00	1.943837e+02	3.727421e+01	0	0
2352891	2.189000e+00	1.581250e+02	4.048967e+00	0	0
2354844	2.189000e+00	1.398689e+02	-1.996307e+00	0	0
2356797	2.189000e+00	1.169037e+02	2.312736e+00	0	0
2358750	2.189000e+00	8.768950e+01	-3.571141e+01	0	0
2360703	2.189000e+00	5.214680e+01	-3.192356e+01	0	0
2362656	2.189000e+00	3.178405e+01	-2.183488e+00	0	0
2364609	2.189000e+00	8.972395e+00	4.461280e-02	0	0
2366563	2.189000e+00	-3.936524e+00	2.742536e-01	0	0
2368516	2.189887e+00	-1.939832e+01	-2.823906e+00	0	0
2370469	2.190000e+00	-4.056739e+01	3.704659e+01	0	0
2372422	2.190000e+00	-5.473134e+01	2.080804e+01	0	0
2374375	2.190000e+00	-6.168586e+01	-3.205165e-01	0	0
2376328	2.190000e+00	-6.780531e+01	2.306374e+00	0	0
2378281	2.190000e+00	-8.526656e+01	-3.918204e+01	0	0
2380234	2.190000e+00	-8.582241e+01	-1.678668e+01	0	0
2382188	2.190000e+00	-1.024615e+02	-4.001223e-01	0	0
2384141	2.190000e+00	-1.103392e+02	-4.285193e-01	0	0
2386094	2.190000e+00	-1.143738e+02	4.056124e-01	0	0
2388047	2.190000e+00	-1.269458e+02	-2.883544e+00	0	0
2390000	2.190000e+00	-1.230391e+02	4.016741e+01	0	0
2391953	2.190000e+00	-1.155844e+02	3.430624e+01	0	0
2393906	2.190000e+00	-1.262436e+02	1.956154e+00	0	0
2395859	2.190889e+00	-1.312665e+02	-1.622652e+00	0	0
2397813	2.191000e+00	-1.313482e+02	2.871419e+00	0	0
2399766	2.191000e+00	-1.470384e+02	-4.399224e+01	0	0
2401719	2.191000e+00	-1.603868e+02	-2.181767e+01	0	0
2403672	2.191000e+00	-1.549381e+02	-7.371310e-01	0	0
2405625	2.191000e+00	-1.588436e+02	-3.936578e-01	0	0
2407578	2.191000e+00	-1.568425e+02	5.916906e-01	0	0
2409531	2.191000e+00	-1.640201e+02	-3.561986e+00	0	0
2411484	2.191000e+00	-1.596631e+02	4.616657e+01	0	0
2413438	2.191891e+00	-1.470324e+02	4.857408e+00	0	0
2415391	2.191109e+00	-1.671887e+02	-2.449276e+00	0	0
2417344	2.191891e+00	-1.619737e+02	3.305654e+00	0	0
2419297	2.192000e+00	-1.671576e+02	-4.433873e+01	0	0
2421250	2.192000e+00	-1.791497e+02	-4.883064e+00	0	0
2423203	2.192000e+00	-1.717898e+02	5.844501e-01	0	0
2425156	2.192000e+00	-1.638874e+02	-2.150246e+00	0	0
2427109	2.192000e+00	-1.797965e+02	-4.452780e-01	0	0
2429063	2.192000e+00	-1.877605e+02	-3.003658e+00	0	0
2431016	2.192000e+00	-1.881273e+02	3.599063e+01	0	0
2432969	2.192000e+00	-1.915865e+02	3.629071e+00	0	0
2434922	2.192000e+00	-1.769762e+02	-1.817623e+00	0	0
2436875	2.192892e+00	-1.786782e+02	1.986945e+00	0	0
2438828	2.193000e+00	-1.855044e+02	-3.197138e+01	0	0
2440781	2.193000e+00	-1.861458e+02	-2.472512e+01	0	0
2442734	2.193000e+00	-1.866464e+02	-4.734507e-01	0	0
2444688	2.193000e+00	-1.857713e+02	1.194648e+00	0	0
2446641	2.193000e+00	-1.998107e+02	1.564337e+00	0	0
2448594	2.193000e+00	-1.875823e+02	-1.595115e+00	0	0
2450547	2.193000e+00	-1.869935e+02	3.328540e+01	0	0
2452500	2.193000e+00	-1.845296e+02	3.256014e+00	0	0
2454453	2.193000e+00	-1.856118e+02	-1.650719e+00	0	0
2456406	2.193000e+00	-1.859859e+02	1.682524e+00	0	0
2458359	2.193894e+00	-1.813681e+02	-3.087818e+01	0	0
2460313	2.194000e+00	-1.945531e+02	-3.748816e+01	0	0
2462266	2.194000e+00	-1.926942e+02	-3.512634e+00	0	0
2464219	2.194000e+00	-2.110559e+02	1.637308e-01	0	0
2466172	2.194000e+00	-2.103122e+02	1.232127e-01	0	0
2468125	2.194000e+00	-1.852011e+02	-2.365904e+00	0	0
2470078	2.194000e+00	-1.812104e+02	3.419130e+01	0	0
2472031	2.194000e+00	-1.933420e+02	2.783822e+01	0	0
2473984	2.194000e+00	-1.841837e+02	8.641976e-01	0	0
2475938	2.194000e+00	-1.778249e+02	-1.453146e+00	0	0
2477891	2.194000e+00	-1.746563e+02	2.526817e+00	0	0
2479844	2.194896e+00	-1.770992e+02	-4.032708e+01	0	0
2481797	2.195000e+00	-1.939591e+02	-1.481569e+01	0	0
2483750	2.195000e+00	-1.951382e+02	-1.908503e-01	0	0
2485703	2.195000e+00	-2.005935e+02	-5.339517e-01	0	0
2487656	2.195000e+00	-1.912597e+02	9.091279e-01	0	0
2489609	2.195000e+00	-1.949356e+02	-2.148421e+00	0	0
2491563	2.195000e+00	-1.804716e+02	4.562501e+01	0	0
2493516	2.195000e+00	-1.742055e+02	4.416578e+00	0	0
2495469	2.195000e+00	-1.674385e+02	-2.274384e+00	0	0
2497422	2.195000e+00	-1.518114e+02	3.017766e+00	0	0
2499375	2.195897e+00	-1.709915e+02	-4.380763e+01	0	0
2501328	2.196000e+00	-1.840762e+02	-9.071326e+00	0	0
2503281	2.196000e+00	-1.866908e+02	-5.803925e-02	0	0
2505234	2.196000e+00	-1.823550e+02	-2.274995e+00	0	0
2507188	2.196000e+00	-1.914867e+02	-1.211211e+00	0	0
2509141	2.196000e+00	-2.004969e+02	-3.084754e+00	0	0
2511094	2.196000e+00	-1.941228e+02	3.647779e+01	0	0
2513047	2.196000e+00	-1.786456e+02	3.411266e+00	0	0
2515000	2.196000e+00	-1.695470e+02	-1.734297e+00	0	0
2516953	2.196898e+00	-1.530681e+02	1.846813e+00	0	0
2518906	2.197000e+00	-1.675838e+02	-3.186193e+01	0	0
2520859	2.197000e+00	-1.826526e+02	-2.552953e+01	0	0
2522813	2.197000e+00	-1.888866e+02	-1.525751e+00	0	0
2524766	2.197000e+00	-1.917429e+02	-2.713882e-02	0	0
2526719	2.197000e+00	-1.707838e+02	8.834948e-01	0	0
2528672	2.197000e+00	-1.741512e+02	-1.241383e+00	0	0
2530625	2.197000e+00	-1.724647e+02	3.158094e+01	0	0
2532578	2.197000e+00	-1.751274e+02	3.528626e+00	0	0
2534531	2.197000e+00	-1.764919e+02	-1.517603e+00	0	0
2536484	2.197900e+00	-1.777742e+02	1.751691e+00	0	0
2538438	2.198000e+00	-1.789480e+02	-2.970856e+01	0	0
2540391	2.198000e+00	-1.883307e+02	-1.564289e+01	0	0
2542344	2.198000e+00	-1.855920e+02	-8.879427e-01	0	0
2544297	2.198000e+00	-1.934107e+02	-3.130769e-01	0	0
2546250	2.198000e+00	-1.959433e+02	1.266988e-01	0	0
2548203	2.198000e+00	-1.838014e+02	-1.914562e+00	0	0
2550156	2.198000e+00	-2.035487e+02	2.866602e+01	0	0
2552109	2.198000e+00	-1.826127e+02	2.675995e+01	0	0
2554063	2.198902e+00	-1.733989e+02	1.304937e+00	0	0
2556016	2.199000e+00	-1.780051e+02	-1.029117e+00	0	0
2557969	2.199000e+00	-1.859555e+02	-1.423501e+00	0	0
2559922	2.199000e+00	-1.972629e+02	-3.536120e+01	0	0
2561875	2.199000e+00	-2.013752e+02	-1.829952e+01	0	0
2563828	2.199000e+00	-1.920815e+02	-4.340694e-01	0	0
2565781	2.199000e+00	-1.966823e+02	1.122643e+00	0	0
2567734	2.199000e+00	-2.031115e+02	2.000779e+00	0	0
2569688	2.199903e+00	-2.012984e+02	-3.069388e+00	0	0
2571641	2.200000e+00	-2.086591e+02	4.316168e+01	0	0
2573594	2.200000e+00	-2.061553e+02	3.942876e+00	0	0
2575547	2.200000e+00	-2.030457e+02	-2.131420e+00	0	0
2577500	2.200000e+00	-1.971232e+02	3.025988e+00	0	0
2579453	2.200000e+00	-2.001346e+02	-4.582014e+01	0	0
2581406	2.200000e+00	-1.954784e+02	-6.650001e+00	0	0
2583359	2.200000e+00	-1.794401e+02	-2.657494e+00	0	0
2585313	2.200000e+00	-1.813562e+02	-4.966895e+00	0	0
2587266	2.200904e+00	-1.613262e+02	-3.744846e+00	0	0
2589219	2.201000e+00	-1.283625e+02	-6.746697e+00	0	0
2591172	2.201000e+00	-1.343726e+02	3.999911e+01	0	0
2593125	2.201000e+00	-1.242465e+02	3.627497e+00	0	0
2595078	2.201000e+00	-9.494855e+01	-1.804178e+00	0	0
2597031	2.201000e+00	-8.739746e+01	2.175979e+00	0	0
2598984	2.201000e+00	-9.257981e+01	-3.889425e+01	0	0
2600938	2.201000e+00	-9.443460e+01	-3.252240e+01	0	0
2602891	2.201905e+00	-8.754901e+01	-1.819579e+00	0	0
2604844	2.202000e+00	-8.356323e+01	7.076942e-01	0	0
2606797	2.202000e+00	-7.339830e+01	3.396310e+00	0	0
2608750	2.202000e+00	-7.519835e+01	2.537215e+00	0	0
2610703	2.202000e+00	-5.362721e+01	4.337151e+01	0	0
2612656	2.202000e+00	-3.534357e+01	9.759445e+00	0	0
2614609	2.202000e+00	-2.672411e+01	3.454314e+00	0	0
2616563	2.202000e+00	-2.399258e+01	4.006046e+00	0	0
2618516	2.202000e+00	-2.040476e+01	-3.413064e+01	0	0
2620469	2.202000e+00	-4.511029e+00	-2.673454e+01	0	0
2622422	2.202907e+00	-2.108369e+01	-1.506905e+00	0	0
2624375	2.203000e+00	-1.570628e+01	1.444586e-02	0	0
2626328	2.203000e+00	-6.535179e-01	-2.634493e+00	0	0
2628281	2.203000e+00	1.397265e+01	-7.685694e+00	0	0
2630234	2.203000e+00	3.161502e+01	2.666849e+01	0	0
2632188	2.203000e+00	2.823896e+01	8.535967e+00	0	0
2634141	2.203000e+00	3.714254e+01	-3.573274e+00	0	0
2636094	2.203908e+00	4.514666e+01	-1.994795e-01	0	0
2638047	2.204000e+00	1.780243e+01	-9.262830e+00	0	0
2640000	2.204000e+00	1.899326e+01	-3.784811e+01	0	0
2641953	2.204000e+00	5.224973e+00	-1.913956e+01	0	0
2643906	2.204000e+00	-5.710197e+00	2.279582e+00	0	0
2645859	2.204000e+00	-6.971003e+00	4.715787e+00	0	0
2647813	2.204000e+00	-1.877516e+01	5.666105e+00	0	0
2649766	2.204000e+00	-5.324917e+01	8.444808e-01	0	0
2651719	2.204909e+00	-7.715043e+01	4.541448e+01	0	0
2653672	2.205000e+00	-9.688868e+01	3.742345e+00	0	0
2655625	2.205000e+00	-1.158880e+02	-2.047062e+00	0	0
2657578	2.205000e+00	-1.393762e+02	2.738166e+00	0	0
2659531	2.205000e+00	-1.651984e+02	-4.537969e+01	0	0
2661484	2.205000e+00	-1.881408e+02	-1.104762e+01	0	0
2663438	2.205000e+00	-2.005457e+02	-2.990412e-01	0	0
2665391	2.205000e+00	-2.192111e+02	-6.218467e-01	0	0
2667344	2.205000e+00	-2.325481e+02	3.977346e-01	0	0
2669297	2.205910e+00	-2.410000e+02	-2.795138e+00	0	0
2671250	2.206000e+00	-2.356311e+02	3.788892e+01	0	0
2673203	2.206000e+00	-2.296249e+02	2.890944e+00	0	0
2675156	2.206000e+00	-2.429392e+02	-1.894689e+00	0	0
2677109	2.206000e+00	-2.489415e+02	1.657783e+00	0	0
2679063	2.206000e+00	-2.558143e+02	-3.343187e+01	0	0
2681016	2.206000e+00	-2.676530e+02	-9.915022e+00	0	0
2682969	2.206911e+00	-2.743493e+02	-3.895485e-01	0	0
2684922	2.207000e+00	-2.655952e+02	-8.079844e-01	0	0
2686875	2.207000e+00	-2.792685e+02	-1.475381e-01	0	0
2688828	2.207000e+00	-2.782282e+02	-2.467703e+00	0	0
2690781	2.207000e+00	-2.892600e+02	2.854961e+01	0	0
2692734	2.207000e+00	-2.820775e+02	1.853455e+00	0	0
2694688	2.207000e+00	-2.834563e+02	-1.718700e+00	0	0
2696641	2.207912e+00	-2.787056e+02	9.542061e-01	0	0
2698594	2.208000e+00	-2.935433e+02	-2.842798e+01	0	0
2700547	2.208000e+00	-2.808445e+02	-2.145586e+01	0	0
2702500	2.208000e+00	-2.976800e+02	-1.526538e+00	0	0
2704453	2.208000e+00	-2.943956e+02	-3.815293e-01	0	0
2706406	2.208000e+00	-2.875324e+02	1.289940e-01	0	0
2708359	2.208000e+00	-3.047390e+02	-1.351894e+00	0	0
2710313	2.208913e+00	-3.040890e+02	2.875825e+01	0	0
2712266	2.209000e+00	-3.037536e+02	2.219352e+01	0	0
2714219	2.209000e+00	-2.875994e+02	1.673207e+00	0	0
2716172	2.209000e+00	-2.929197e+02	1.329349e+00	0	0
2718125	2.209000e+00	-3.109438e+02	-1.972103e+01	0	0
2720078	2.209000e+00	-3.262601e+02	-3.443802e+01	0	0
2722031	2.209000e+00	-3.053809e+02	-2.446838e+00	0	0
2723984	2.209913e+00	-3.254558e+02	3.082218e-01	0	0
2725938	2.210000e+00	-3.269810e+02	-5.598537e-01	0	0
2727891	2.210000e+00	-3.242030e+02	1.827652e-01	0	0
2729844	2.210000e+00	-3.132100e+02	2.074023e-01	0	0
2731797	2.210000e+00	-3.145952e+02	3.712429e+01	0	0
2733750	2.210000e+00	-3.063004e+02	1.950698e+00	0	0
2735703	2.210000e+00	-3.021958e+02	-3.274814e+00	0	0
2737656	2.210000e+00	-2.980022e+02	2.147879e-01	0	0
2739609	2.210914e+00	-3.107554e+02	-4.094635e+01	0	0
2741563	2.211000e+00	-3.427483e+02	-6.096421e+00	0	0
2743516	2.211000e+00	-3.677955e+02	-1.056725e+00	0	0
2745469	2.211000e+00	-4.030950e+02	-1.129164e+00	0	0
2747422	2.211000e+00	-3.905029e+02	3.244875e-01	0	0
2749375	2.211000e+00	-3.643540e+02	-2.441276e+00	0	0
2751328	2.211915e+00	-3.215220e+02	3.575888e+01	0	0
2753281	2.212000e+00	-2.789096e+02	2.686041e+00	0	0
2755234	2.212000e+00	-1.525246e+02	-1.571579e+00	0	0
2757188	2.212000e+00	-4.592662e+01	1.857157e+00	0	0
2759141	2.212000e+00	7.861784e+01	-3.470923e+01	0	0
2761094	2.212000e+00	2.501378e+02	-9.220076e+00	0	0
2763047	2.212000e+00	4.864452e+02	6.413243e-01	0	0
2765000	2.212916e+00	7.619110e+02	-4.739486e-01	0	0
2766953	2.213000e+00	1.016214e+03	6.448434e-01	0	0
2768906	2.213000e+00	1.266578e+03	-1.531546e+00	0	0
2770859	2.213000e+00	1.503078e+03	3.830187e+01	0	0
2772813	2.213000e+00	1.681683e+03	4.538783e+00	0	0
2774766	2.213000e+00	1.650069e+03	5.883109e-01	0	0
2776719	2.213000e+00	1.542572e+03	4.094347e+00	0	0
2778672	2.213917e+00	1.240421e+03	-3.474538e+01	0	0
2780625	2.214000e+00	9.207711e+02	-2.512727e+01	0	0
2782578	2.214000e+00	7.283998e+02	1.129352e+00	0	0
2784531	2.214000e+00	5.417522e+02	2.133258e+00	0	0
2786484	2.214000e+00	3.702015e+02	2.203497e+00	0	0
2788438	2.214000e+00	1.115292e+02	-8.588123e-01	0	0
2790391	2.214918e+00	-1.704359e+02	3.984050e+01	0	0
2792344	2.215000e+00	-2.835972e+02	1.089354e+01	0	0
2794297	2.215000e+00	-3.680726e+02	-9.815375e-01	0	0
2796250	2.215000e+00	-4.298806e+02	1.568644e+00	0	0
2798203	2.215000e+00	-4.430860e+02	-3.935698e+01	0	0
2800156	2.215000e+00	-4.336472e+02	-4.151377e+01	0	0
2802109	2.215000e+00	-3.906981e+02	-9.629723e+00	0	0
2804063	2.215919e+00	-4.137692e+02	-3.175152e-01	0	0
2806016	2.216000e+00	-3.686917e+02	-1.885438e-01	0	0
2807969	2.216000e+00	-3.246275e+02	-6.909240e-01	0	0
2809922	2.216000e+00	-3.060535e+02	1.602372e+01	0	0
2811875	2.216000e+00	-2.832857e+02	4.553444e+01	0	0
2813828	2.216000e+00	-2.461995e+02	2.751413e+00	0	0
2815781	2.216000e+00	-2.298984e+02	-2.168296e+00	0	0
2817734	2.216919e+00	-2.518363e+02	1.570469e+00	0	0
2819688	2.217000e+00	-2.752414e+02	-4.459733e+01	0	0
2821641	2.217000e+00	-2.709774e+02	-1.111659e+01	0	0
2823594	2.217000e+00	-2.748603e+02	-3.500941e-01	0	0
2825547	2.217000e+00	-2.844379e+02	-5.603099e-01	0	0
2827500	2.217920e+00	-2.863453e+02	3.091477e-01	0	0
2829453	2.218000e+00	-2.913808e+02	-2.435360e+00	0	0
2831406	2.218000e+00	-2.784640e+02	3.776319e+01	0	0
2833359	2.218000e+00	-2.861404e+02	2.637124e+00	0	0
2835313	2.218000e+00	-2.866754e+02	-1.561337e+00	0	0
2837266	2.218000e+00	-2.816907e+02	1.888383e+00	0	0
2839219	2.218000e+00	-2.718934e+02	-3.592165e+01	0	0
2841172	2.218921e+00	-2.632197e+02	-2.864398e+00	0	0
2843125	2.219000e+00	-2.814163e+02	4.246813e-01	0	0
2845078	2.219000e+00	-2.701447e+02	-6.148991e-01	0	0
2847031	2.219000e+00	-2.579396e+02	2.741809e-01	0	0
2848984	2.219000e+00	-2.659055e+02	-2.241753e+00	0	0
2850938	2.219922e+00	-2.747912e+02	3.467004e+01	0	0
2852891	2.219078e+00	-2.673103e+02	2.329657e+00	0	0
2854844	2.219922e+00	-2.483028e+02	-1.421026e+00	0	0
2856797	2.220000e+00	-2.448099e+02	1.610823e+00	0	0
2858750	2.220000e+00	-2.433301e+02	-3.498709e+01	0	0
2860703	2.220000e+00	-2.508752e+02	-1.828822e+01	0	0
2862656	2.220000e+00	-2.360122e+02	-6.878804e-01	0	0
2864609	2.220922e+00	-2.422171e+02	-3.191666e-01	0	0
2866563	2.221000e+00	-2.444123e+02	1.921149e-01	0	0
2868516	2.221000e+00	-2.547118e+02	-2.209619e+00	0	0
2870469	2.221000e+00	-2.517529e+02	3.720467e+01	0	0
2872422	2.221000e+00	-2.258039e+02	1.224445e+01	0	0
2874375	2.221000e+00	-2.256109e+02	-7.929886e-01	0	0
2876328	2.221923e+00	-1.923653e+02	1.472976e+00	0	0
2878281	2.222000e+00	-2.056467e+02	-3.893242e+01	0	0
2880234	2.222000e+00	-2.283399e+02	-3.256398e+01	0	0
2882188	2.222000e+00	-2.129217e+02	-1.573407e+00	0	0
2884141	2.222000e+00	-2.346927e+02	-2.594590e-02	0	0
2886094	2.222924e+00	-2.081086e+02	-9.938243e-02	0	0
2888047	2.223000e+00	-2.138718e+02	-1.337748e+00	0	0
2890000	2.223000e+00	-2.246330e+02	2.872995e+01	0	0
2891953	2.223000e+00	-2.136615e+02	4.482238e+01	0	0
2893906	2.223000e+00	-2.060299e+02	2.253211e+00	0	0
2895859	2.223000e+00	-1.981375e+02	-1.514804e+00	0	0
2897813	2.223000e+00	-2.163312e+02	2.048842e+00	0	0
2899766	2.223925e+00	-2.055062e+02	-4.265186e+01	0	0
2901719	2.224000e+00	-1.977207e+02	-1.014793e+01	0	0
2903672	2.224000e+00	-1.939353e+02	4.372988e-02	0	0
2905625	2.224000e+00	-1.936032e+02	-5.216616e-01	0	0
2907578	2.224000e+00	-1.872570e+02	2.773019e-01	0	0
2909531	2.224925e+00	-1.806891e+02	-2.348774e+00	0	0
2911484	2.225000e+00	-1.866010e+02	3.849454e+01	0	0
2913438	2.225000e+00	-1.902090e+02	2.444755e+00	0	0
2915391	2.225000e+00	-1.802288e+02	-1.463357e+00	0	0
2917344	2.225000e+00	-1.758874e+02	1.662907e+00	0	0
2919297	2.225926e+00	-1.634522e+02	-3.602436e+01	0	0
2921250	2.226000e+00	-1.509685e+02	-1.184117e+01	0	0
2923203	2.226000e+00	-1.563243e+02	-2.293205e-01	0	0
2925156	2.226000e+00	-1.720985e+02	-4.309768e-01	0	0
2927109	2.226000e+00	-1.639050e+02	1.865631e-01	0	0
2929063	2.226000e+00	-1.677967e+02	-2.065932e+00	0	0
2931016	2.226927e+00	-1.647796e+02	3.390417e+01	0	0
2932969	2.227000e+00	-1.454944e+02	2.064826e+00	0	0
2934922	2.227000e+00	-1.499918e+02	-1.258231e+00	0	0
2936875	2.227000e+00	-1.386029e+02	1.219783e+00	0	0
2938828	2.227000e+00	-1.314277e+02	-3.299539e+01	0	0
2940781	2.227928e+00	-1.272235e+02	-3.279681e+01	0	0
2942734	2.228000e+00	-1.258196e+02	-1.653665e+00	0	0
2944688	2.228000e+00	-1.059590e+02	-4.836128e-02	0	0
2946641	2.228000e+00	-9.637023e+01	6.091386e-02	0	0
2948594	2.228000e+00	-9.575198e+01	-1.956310e+00	0	0
2950547	2.228928e+00	-7.844920e+01	3.483323e+01	0	0
2952500	2.229000e+00	-6.156589e+01	1.154553e+01	0	0
2954453	2.229000e+00	-5.939198e+01	-7.206934e-01	0	0
2956406	2.229000e+00	-5.374717e+01	1.278300e+00	0	0
2958359	2.229000e+00	-4.949595e+01	-3.620633e+01	0	0
2960313	2.229000e+00	-7.582738e+01	-2.800341e+01	0	0
2962266	2.229000e+00	-8.739308e+01	-8.132995e+00	0	0
2964219	2.229929e+00	-7.568129e+01	-4.710012e-01	0	0
2966172	2.230000e+00	-6.326175e+01	2.798061e-01	0	0
2968125	2.230000e+00	-4.934808e+01	-1.503151e+00	0	0
2970078	2.230000e+00	-3.719888e+01	3.627088e+01	0	0
2972031	2.230930e+00	-2.308918e+01	4.183161e+01	0	0
2973984	2.231000e+00	-2.062746e+01	2.045040e+00	0	0
2975938	2.231000e+00	1.414714e+01	-8.569742e-01	0	0
2977891	2.231000e+00	3.612555e+01	2.027591e+00	0	0
2979844	2.231000e+00	4.392656e+01	-3.863493e+01	0	0
2981797	2.231000e+00	2.621144e+01	-1.928250e+01	0	0
2983750	2.231931e+00	3.710881e+01	-1.181879e-01	0	0
2985703	2.232000e+00	5.882824e+01	2.526634e-01	0	0
2987656	2.232000e+00	4.359081e+01	7.759156e-01	0	0
2989609	2.232000e+00	6.699691e+01	-1.565682e+00	0	0
2991563	2.232000e+00	6.770716e+01	3.867054e+01	0	0
2993516	2.232931e+00	9.196051e+01	4.611263e+00	0	0
2995469	2.233000e+00	9.588170e+01	6.747046e-01	0	0
2997422	2.233000e+00	1.082394e+02	2.127705e+00	0	0
2999375	2.233000e+00	1.244315e+02	-3.408963e+01	0	0
3001328	2.233000e+00	1.280529e+02	-5.469116e+00	0	0
3003281	2.233932e+00	1.278284e+02	4.833360e-01	0	0
3005234	2.234000e+00	1.346467e+02	-6.268741e-02	0	0
3007188	2.234000e+00	1.397795e+02	-1.157499e+00	0	0
3009141	2.234000e+00	1.609975e+02	-4.270993e+00	0	0
3011094	2.234000e+00	1.400042e+02	2.516872e+01	0	0
3013047	2.234000e+00	1.772933e+02	1.005712e+01	0	0
3015000	2.234933e+00	2.013187e+02	-5.220250e-01	0	0
3016953	2.235000e+00	2.024022e+02	8.818652e-01	0	0
3018906	2.235000e+00	2.054358e+02	-2.850715e+01	0	0
3020859	2.235000e+00	2.004070e+02	-1.783871e+01	0	0
3022813	2.235000e+00	2.133288e+02	-4.723193e-01	0	0
3024766	2.235933e+00	2.249422e+02	1.911265e+00	0	0
3026719	2.236000e+00	2.260180e+02	3.248977e+00	0	0
3028672	2.236000e+00	1.927482e+02	9.620798e-01	0	0
3030625	2.236000e+00	1.924738e+02	3.401213e+01	0	0
3032578	2.236000e+00	2.007192e+02	1.806490e+00	0	0
3034531	2.236934e+00	1.941991e+02	-1.198224e+00	0	0
3036484	2.237000e+00	1.825252e+02	1.189808e+00	0	0
3038438	2.237000e+00	1.907052e+02	-3.374791e+01	0	0
3040391	2.237000e+00	1.495125e+02	-2.532393e+01	0	0
3042344	2.237000e+00	1.501917e+02	-2.978274e-01	0	0
3044297	2.237935e+00	1.002468e+02	6.773867e-01	0	0
3046250	2.238000e+00	7.463558e+01	-8.387130e-02	0	0
3048203	2.238000e+00	7.558781e+01	-1.893536e+00	0	0
3050156	2.238000e+00	5.117706e+01	2.967905e+01	0	0
3052109	2.238000e+00	1.812998e+01	3.591341e+01	0	0
3054063	2.238000e+00	-1.828466e+01	2.863236e+00	0	0
3056016	2.238935e+00	-2.877690e+01	2.601554e+00	0	0
3057969	2.239000e+00	-5.557137e+01	-1.713433e+00	0	0
3059922	2.239000e+00	-9.252596e+01	-3.293210e+01	0	0
3061875	2.239000e+00	-1.098367e+02	-2.288343e+01	0	0
3063828	2.239936e+00	-1.431633e+02	3.016510e+00	0	0
3065781	2.240000e+00	-1.335699e+02	4.672202e+00	0	0
3067734	2.240000e+00	-1.524417e+02	4.231380e+00	0	0
3069688	2.240000e+00	-1.874389e+02	-5.816648e-01	0	0
3071641	2.240000e+00	-2.068459e+02	4.260042e+01	0	0
3073594	2.240000e+00	-2.024175e+02	1.932955e+00	0	0
3075547	2.240937e+00	-2.139249e+02	-1.905486e+00	0	0
3077500	2.241000e+00	-2.713473e+02	1.420284e+00	0	0
3079453	2.241000e+00	-2.831074e+02	-4.506317e+01	0	0
3081406	2.241000e+00	-2.617672e+02	-4.348247e+00	0	0
3083359	2.241000e+00	-2.640263e+02	-2.857943e+00	0	0
3085313	2.241937e+00	-2.799069e+02	-5.322832e+00	0	0
3087266	2.242000e+00	-2.935025e+02	-5.546711e+00	0	0
3089219	2.242000e+00	-3.001440e+02	-8.338783e+00	0	0
3091172	2.242000e+00	-2.947483e+02	3.156888e+01	0	0
3093125	2.242000e+00	-3.010587e+02	-4.181860e+00	0	0
3095078	2.242938e+00	-2.863785e+02	-6.756571e+00	0	0
3097031	2.243000e+00	-2.904072e+02	-3.246242e+00	0	0
3098984	2.243000e+00	-2.881317e+02	-3.681895e+01	0	0
3100938	2.243000e+00	-2.965315e+02	-4.944123e+00	0	0
3102891	2.243000e+00	-3.062657e+02	-8.187128e-01	0	0
3104844	2.243939e+00	-3.075504e+02	-1.365694e+00	0	0
3106797	2.244000e+00	-3.242184e+02	-6.993053e-01	0	0
3108750	2.244000e+00	-3.288273e+02	-2.207797e+00	0	0
3110703	2.244000e+00	-3.166915e+02	2.733209e+01	0	0
3112656	2.244000e+00	-3.580592e+02	8.638332e-01	0	0
3114609	2.244939e+00	-3.462088e+02	-5.762452e-02	0	0
3116563	2.245000e+00	-3.573316e+02	2.440907e+00	0	0
3118516	2.245000e+00	-3.455965e+02	-1.443760e+01	0	0
3120469	2.245000e+00	-3.557553e+02	-2.534688e+01	0	0
3122422	2.245000e+00	-3.326768e+02	2.919956e+00	0	0
3124375	2.245940e+00	-3.069643e+02	4.451318e+00	0	0
3126328	2.246000e+00	-3.501249e+02	4.255396e+00	0	0
3128281	2.246000e+00	-3.550175e+02	2.595703e+00	0	0
3130234	2.246000e+00	-3.397847e+02	3.372658e+01	0	0
3132188	2.246000e+00	-3.296359e+02	2.420467e+01	0	0
3134141	2.246941e+00	-3.524006e+02	2.683451e+00	0	0
3136094	2.247000e+00	-3.490889e+02	6.395204e-01	0	0
3138047	2.247000e+00	-3.334173e+02	1.893793e+00	0	0
3140000	2.247000e+00	-3.247501e+02	-3.607205e+01	0	0
3141953	2.247000e+00	-3.395190e+02	-7.918284e+00	0	0
3143906	2.247941e+00	-3.196306e+02	-1.622351e-01	0	0
3145859	2.248000e+00	-3.266612e+02	-5.798464e-01	0	0
3147813	2.248000e+00	-3.427196e+02	4.887823e-02	0	0
3149766	2.248000e+00	-3.522339e+02	-2.052994e+00	0	0
3151719	2.248000e+00	-3.379958e+02	3.831043e+01	0	0
3153672	2.248942e+00	-3.318130e+02	1.703638e+00	0	0
3155625	2.249000e+00	-3.333877e+02	-1.372405e+00	0	0
3157578	2.249000e+00	-3.369537e+02	9.795463e-01	0	0
3159531	2.249000e+00	-3.343615e+02	-3.978207e+01	0	0
3161484	2.249000e+00	-3.196109e+02	-3.938043e+00	0	0
3163438	2.249943e+00	-3.304987e+02	-1.798298e+00	0	0
3165391	2.250000e+00	-3.216460e+02	-2.781305e+00	0	0
3167344	2.250000e+00	-3.577429e+02	-2.085631e+00	0	0
3169297	2.250000e+00	-3.435923e+02	-3.846483e+00	0	0
3171250	2.250000e+00	-3.282192e+02	3.397455e+01	0	0
3173203	2.250000e+00	-3.097932e+02	2.440859e-01	0	0
3175156	2.250943e+00	-2.974767e+02	-2.103083e+00	0	0
3177109	2.251000e+00	-3.035601e+02	7.376692e-01	0	0
3179063	2.251000e+00	-3.122792e+02	-3.554653e+01	0	0
3181016	2.251000e+00	-3.513532e+02	-1.092220e+01	0	0
3182969	2.251000e+00	-3.393634e+02	-3.722774e-01	0	0
3184922	2.251944e+00	-3.512688e+02	-5.481499e-01	0	0
3186875	2.252000e+00	-3.221098e+02	-4.587875e-02	0	0
3188828	2.252000e+00	-3.190466e+02	-1.884349e+00	0	0
3190781	2.252000e+00	-3.241106e+02	3.493235e+01	0	0
3192734	2.252000e+00	-3.116187e+02	1.387854e+00	0	0
3194688	2.252945e+00	-3.180475e+02	-1.202652e+00	0	0
3196641	2.253000e+00	-3.305172e+02	7.965961e-01	0	0
3198594	2.253000e+00	-2.851257e+02	-3.404745e+01	0	0
3200547	2.253000e+00	-3.099334e+02	-2.850559e+01	0	0
3202500	2.253945e+00	-3.431743e+02	-1.261421e+00	0	0
3204453	2.254000e+00	-3.471564e+02	-3.016199e-01	0	0
3206406	2.254000e+00	-3.590863e+02	-2.298217e-01	0	0
3208359	2.254000e+00	-3.380594e+02	-1.477892e+00	0	0
3210313	2.254000e+00	-3.126582e+02	3.145189e+01	0	0
3212266	2.254946e+00	-2.974778e+02	2.759201e+01	0	0
3214219	2.255000e+00	-2.977388e+02	6.080863e-01	0	0
3216172	2.255000e+00	-3.014792e+02	-8.833255e-01	0	0
3218125	2.255000e+00	-3.585771e+02	7.612580e-01	0	0
3220078	2.255000e+00	-3.176489e+02	-3.392312e+01	0	0
3222031	2.255000e+00	-3.343927e+02	-2.082778e+01	0	0
3223984	2.255946e+00	-3.736505e+02	-2.196273e-01	0	0
3225938	2.256000e+00	-3.424292e+02	4.513947e-01	0	0
3227891	2.256000e+00	-3.179444e+02	2.047040e-01	0	0
3229844	2.256000e+00	-3.338271e+02	-1.605627e+00	0	0
3231797	2.256947e+00	-2.877514e+02	3.834708e+01	0	0
3233750	2.257000e+00	-3.191106e+02	1.926467e+00	0	0
3235703	2.257000e+00	-3.573268e+02	-7.837272e-01	0	0
3237656	2.257000e+00	-3.160913e+02	1.794185e+00	0	0
3239609	2.257000e+00	-3.117564e+02	-3.925015e+01	0	0
3241563	2.257948e+00	-3.174261e+02	-4.941859e+00	0	0
3243516	2.258000e+00	-3.293737e+02	5.905007e-01	0	0
3245469	2.258000e+00	-2.778037e+02	9.128619e-02	0	0
3247422	2.258000e+00	-2.559783e+02	8.521998e-01	0	0
3249375	2.258000e+00	-2.493137e+02	-9.838124e-01	0	0
3251328	2.258000e+00	-2.522463e+02	3.878514e+01	0	0
3253281	2.258948e+00	-2.392676e+02	2.083212e+00	0	0
3255234	2.259000e+00	-2.521436e+02	-5.839602e-01	0	0
3257188	2.259000e+00	-2.369467e+02	1.860148e+00	0	0
3259141	2.259000e+00	-2.306677e+02	-3.710675e+01	0	0
3261094	2.259000e+00	-2.551684e+02	-6.664540e+00	0	0
3263047	2.259949e+00	-2.349772e+02	6.635835e-01	0	0
3265000	2.260000e+00	-2.249085e+02	1.943964e-01	0	0
3266953	2.260000e+00	-1.903949e+02	6.432489e-01	0	0
3268906	2.260000e+00	-2.029804e+02	-1.273514e+00	0	0
3270859	2.260949e+00	-1.829208e+02	3.762293e+01	0	0
3272813	2.261000e+00	-1.525149e+02	1.589344e+00	0	0
3274766	2.261000e+00	-1.426536e+02	-1.016420e+00	0	0
3276719	2.261000e+00	-1.252023e+02	7.048373e-01	0	0
3278672	2.261000e+00	-1.146473e+02	-3.719618e+01	0	0
3280625	2.261000e+00	-1.251083e+02	-3.754785e+01	0	0
3282578	2.261950e+00	-1.376162e+02	-1.571373e+00	0	0
3284531	2.262000e+00	-7.508326e+01	-2.881171e-01	0	0
3286484	2.262000e+00	-7.725789e+01	1.339031e-01	0	0
3288438	2.262000e+00	-1.151645e+02	-8.866178e-01	0	0
3290391	2.262000e+00	-1.242877e+02	4.034550e+01	0	0
3292344	2.262951e+00	-1.242243e+02	1.915110e+01	0	0
3294297	2.263000e+00	-9.489088e+01	1.526541e+00	0	0
3296250	2.263000e+00	-1.029261e+02	1.907914e+00	0	0
3298203	2.263000e+00	-1.202008e+02	-2.100097e+01	0	0
3300156	2.263000e+00	-1.325215e+02	-4.241114e+01	0	0
3302109	2.263951e+00	-1.382465e+02	-6.339987e+00	0	0
3304063	2.264000e+00	-1.391681e+02	-1.017338e-01	0	0
3306016	2.264000e+00	-1.592971e+02	-4.478156e-01	0	0
3307969	2.264000e+00	-1.583964e+02	-2.058151e-03	0	0
3309922	2.264952e+00	-2.021374e+02	1.787484e+00	0	0
3311875	2.265000e+00	-1.929500e+02	4.373971e+01	0	0
3313828	2.265000e+00	-1.669163e+02	1.617701e+00	0	0
3315781	2.265000e+00	-1.906066e+02	-1.125013e+00	0	0
3317734	2.265000e+00	-2.411320e+02	1.083112e+00	0	0
3319688	2.265953e+00	-2.907885e+02	-4.386407e+01	0	0
3321641	2.266000e+00	-3.067511e+02	-1.060736e+01	0	0
3323594	2.266000e+00	-3.114428e+02	-2.388300e+00	0	0
3325547	2.266000e+00	-3.630186e+02	-2.935240e+00	0	0
3327500	2.266000e+00	-3.657607e+02	-2.309666e+00	0	0
3329453	2.266000e+00	-4.101374e+02	-3.573085e+00	0	0
3331406	2.266953e+00	-3.618985e+02	3.436656e+01	0	0
3333359	2.267000e+00	-3.598508e+02	1.857554e-01	0	0
3335313	2.267000e+00	-3.829555e+02	-1.589589e+00	0	0
3337266	2.267000e+00	-3.392285e+02	2.086288e-01	0	0
3339219	2.267000e+00	-3.413059e+02	-3.340767e+01	0	0
3341172	2.267954e+00	-3.729180e+02	-7.023218e+00	0	0
3343125	2.268000e+00	-4.130776e+02	-9.474258e-01	0	0
3345078	2.268000e+00	-4.047250e+02	-1.281051e+00	0	0
3347031	2.268000e+00	-4.103825e+02	-9.211321e-01	0	0
3348984	2.268954e+00	-3.897512e+02	-2.234957e+00	0	0
3350938	2.269000e+00	-3.784411e+02	2.840397e+01	0	0
3352891	2.269000e+00	-3.341894e+02	-4.892504e-02	0	0
3354844	2.269000e+00	-4.139095e+02	-1.809644e+00	0	0
3356797	2.269000e+00	-4.102229e+02	-3.400175e-01	0	0
3358750	2.269000e+00	-4.457653e+02	-2.977574e+01	0	0
3360703	2.269955e+00	-4.079988e+02	-1.517446e+01	0	0
3362656	2.270000e+00	-4.103726e+02	-8.667540e-01	0	0
3364609	2.270000e+00	-4.366008e+02	-2.576190e-01	0	0
3366563	2.270000e+00	-4.472612e+02	3.335970e-01	0	0
3368516	2.270000e+00	-4.407876e+02	-4.698958e-01	0	0
3370469	2.270956e+00	-3.985364e+02	2.958423e+01	0	0
3372422	2.271000e+00	-4.091633e+02	1.197848e+01	0	0
3374375	2.271000e+00	-4.003260e+02	6.242439e-01	0	0
3376328	2.271000e+00	-3.871369e+02	1.011526e+00	0	0
3378281	2.271956e+00	-4.040115e+02	-2.128061e+01	0	0
3380234	2.272000e+00	-4.141463e+02	-3.430556e+01	0	0
3382188	2.272000e+00	-4.314788e+02	-1.107166e+01	0	0
3384141	2.272000e+00	-4.554561e+02	-4.711207e-01	0	0
3386094	2.272000e+00	-3.917443e+02	-4.462877e-01	0	0
3388047	2.272000e+00	-4.358287e+02	-2.467508e-01	0	0
3390000	2.272957e+00	-4.161793e+02	4.067990e+00	0	0
3391953	2.273000e+00	-3.921037e+02	4.489912e+01	0	0
3393906	2.273000e+00	-3.953039e+02	1.217470e+00	0	0
3395859	2.273000e+00	-4.129591e+02	-1.349450e+00	0	0
3397813	2.273000e+00	-4.645984e+02	7.570006e-01	0	0
3399766	2.273958e+00	-5.055730e+02	-4.985966e+01	0	0
3401719	2.274000e+00	-4.933695e+02	-2.311795e+00	0	0
3403672	2.274000e+00	-4.634853e+02	-4.062856e-02	0	0
3405625	2.274000e+00	-4.708526e+02	-7.759456e-01	0	0
3407578	2.274958e+00	-4.779564e+02	-1.021283e-01	0	0
3409531	2.275000e+00	-3.839895e+02	-2.062963e+00	0	0
3411484	2.275000e+00	-2.930823e+02	4.833616e+01	0	0
3413438	2.275000e+00	-1.541450e+02	1.590173e+00	0	0
3415391	2.275000e+00	-6.888859e+00	-1.333901e+00	0	0
3417344	2.275959e+00	1.404833e+02	8.529058e-01	0	0
3419297	2.276000e+00	3.945446e+02	-4.442007e+01	0	0
3421250	2.276000e+00	6.507335e+02	-1.078856e+01	0	0
3423203	2.276000e+00	9.257580e+02	-4.193891e-01	0	0
3425156	2.276000e+00	1.152699e+03	-6.464908e-01	0	0
3427109	2.276960e+00	1.360852e+03	-2.873435e-01	0	0
3429063	2.277000e+00	1.598367e+03	-2.062984e+00	0	0
3431016	2.277000e+00	1.606018e+03	3.117907e+01	0	0
3432969	2.277000e+00	1.522123e+03	-1.486399e-01	0	0
3434922	2.277000e+00	1.257233e+03	-1.494807e+00	0	0
3436875	2.277960e+00	8.896664e+02	1.998515e-01	0	0
3438828	2.278000e+00	7.092165e+02	-2.951907e+01	0	0
3440781	2.278000e+00	4.670127e+02	-2.746525e+01	0	0
3442734	2.278000e+00	3.200382e+02	-1.140783e+00	0	0
3444688	2.278961e+00	8.725761e+01	-4.453341e-01	0	0
3446641	2.279000e+00	-2.093715e+02	-2.947024e-01	0	0
3448594	2.279000e+00	-3.200770e+02	-1.082841e+00	0	0
3450547	2.279000e+00	-4.359130e+02	3.015659e+01	0	0
3452500	2.279000e+00	-5.091265e+02	1.487958e+01	0	0
3454453	2.279962e+00	-5.345858e+02	1.083071e-01	0	0
3456406	2.280000e+00	-5.184108e+02	9.560764e-01	0	0
3458359	2.280000e+00	-4.986411e+02	-3.285904e+01	0	0
3460313	2.280000e+00	-4.581177e+02	-3.598143e+01	0	0
3462266	2.280000e+00	-4.230469e+02	-1.806568e+01	0	0
3464219	2.280962e+00	-3.993796e+02	1.297967e-01	0	0
3466172	2.281000e+00	-3.485550e+02	5.442614e-01	0	0
3468125	2.281000e+00	-3.578774e+02	7.317879e-02	0	0
3470078	2.281000e+00	-3.497878e+02	1.685259e+01	0	0
3472031	2.281963e+00	-3.307100e+02	4.400670e+01	0	0
3473984	2.282000e+00	-3.441028e+02	9.660730e-01	0	0
3475938	2.282000e+00	-2.939272e+02	-1.203990e+00	0	0
3477891	2.282000e+00	-2.760924e+02	7.685537e-01	0	0
3479844	2.282000e+00	-3.231941e+02	-4.509293e+01	0	0
3481797	2.282963e+00	-3.690869e+02	-1.941062e+00	0	0
3483750	2.283000e+00	-3.918510e+02	-1.590793e-01	0	0
3485703	2.283000e+00	-3.890274e+02	-7.305675e-01	0	0
3487656	2.283000e+00	-4.016797e+02	-2.221840e-01	0	0
3489609	2.283000e+00	-3.776779e+02	-1.682981e+00	0	0
3491563	2.283000e+00	-3.748107e+02	4.066624e+01	0	0
3493516	2.283964e+00	-3.194728e+02	7.753354e-01	0	0
3495469	2.284000e+00	-3.094416e+02	-1.153902e+00	0	0
3497422	2.284000e+00	-3.096965e+02	5.388969e-01	0	0
3499375	2.284000e+00	-3.418096e+02	-3.973301e+01	0	0
3501328	2.284965e+00	-3.252192e+02	-9.741305e+00	0	0
3503281	2.285000e+00	-3.523686e+02	-5.135340e-01	0	0
3505234	2.285000e+00	-3.146414e+02	-8.930364e-01	0	0
3507188	2.285000e+00	-3.081213e+02	-6.790878e-01	0	0
3509141	2.285965e+00	-3.521779e+02	-2.071837e+00	0	0
3511094	2.286000e+00	-3.142367e+02	3.745411e+01	0	0
3513047	2.286000e+00	-3.378116e+02	3.210200e-03	0	0
3515000	2.286000e+00	-3.357701e+02	-1.789462e+00	0	0
3516953	2.286966e+00	-3.297247e+02	-3.024819e-01	0	0
3518906	2.287000e+00	-3.550108e+02	-3.974356e+01	0	0
3520859	2.287000e+00	-3.303279e+02	-1.752408e+01	0	0
3522813	2.287000e+00	-3.015870e+02	-1.512054e+00	0	0
3524766	2.287000e+00	-3.353737e+02	-1.450576e+00	0	0
3526719	2.287967e+00	-2.959936e+02	-1.201981e+00	0	0
3528672	2.288000e+00	-3.188961e+02	-2.367234e+00	0	0
3530625	2.288000e+00	-3.024142e+02	3.775951e+01	0	0
3532578	2.288000e+00	-3.408638e+02	1.156057e+01	0	0
3534531	2.288000e+00	-3.203276e+02	-1.639173e+00	0	0
3536484	2.288000e+00	-2.804720e+02	-5.572432e-01	0	0
3538438	2.288967e+00	-2.710666e+02	-4.053131e+01	0	0
3540391	2.289000e+00	-2.972299e+02	-2.112815e+01	0	0
3542344	2.289000e+00	-2.900206e+02	-1.508212e+00	0	0
3544297	2.289000e+00	-2.797091e+02	-1.229746e+00	0	0
3546250	2.289968e+00	-3.432647e+02	-9.909138e-01	0	0
3548203	2.290000e+00	-3.176402e+02	-1.784513e+00	0	0
3550156	2.290000e+00	-2.728904e+02	3.638277e+01	0	0
3552109	2.290000e+00	-2.890901e+02	3.531550e+01	0	0
3554063	2.290968e+00	-2.896953e+02	-1.701984e-02	0	0
3556016	2.291000e+00	-2.712717e+02	-1.015290e+00	0	0
3557969	2.291000e+00	-2.477901e+02	3.656028e-01	0	0
3559922	2.291000e+00	-2.488591e+02	-3.661537e+01	0	0
3561875	2.291000e+00	-2.295741e+02	-1.501740e+00	0	0
3563828	2.291969e+00	-2.446066e+02	-2.737180e-01	0	0
3565781	2.292000e+00	-3.242898e+02	-6.688287e-01	0	0
3567734	2.292000e+00	-2.951396e+02	-3.110682e-01	0	0
3569688	2.292969e+00	-2.919144e+02	-1.330937e+00	0	0
3571641	2.292030e+00	-2.841996e+02	3.324176e+01	0	0
3573594	2.292970e+00	-2.529295e+02	3.807877e-01	0	0
3575547	2.293000e+00	-2.467026e+02	-9.717520e-01	0	0
3577500	2.293000e+00	-2.423083e+02	2.597646e-01	0	0
3579453	2.293000e+00	-2.242383e+02	-3.373903e+01	0	0
3581406	2.293970e+00	-2.326799e+02	-6.338829e+00	0	0
3583359	2.294000e+00	-2.387356e+02	-4.252219e-01	0	0
3585313	2.294000e+00	-2.190228e+02	-6.187391e-01	0	0
3587266	2.294000e+00	-2.161945e+02	-3.319570e-01	0	0
3589219	2.294971e+00	-1.956191e+02	-1.282887e+00	0	0
3591172	2.295000e+00	-1.842912e+02	3.268659e+01	0	0
3593125	2.295000e+00	-2.024634e+02	3.287021e-01	0	0
3595078	2.295000e+00	-1.581930e+02	-9.227394e-01	0	0
3597031	2.295000e+00	-1.498653e+02	1.453625e-01	0	0
3598984	2.295971e+00	-1.448455e+02	-3.392078e+01	0	0
3600938	2.296000e+00	-1.444858e+02	-2.330266e+01	0	0
3602891	2.296000e+00	-1.590789e+02	-8.289394e-01	0	0
3604844	2.296000e+00	-1.772989e+02	-5.070062e-01	0	0
3606797	2.296972e+00	-1.456676e+02	-2.590046e-01	0	0
3608750	2.297000e+00	-1.683694e+02	-1.094836e+00	0	0
3610703	2.297000e+00	-1.395093e+02	3.734062e+01	0	0
3612656	2.297000e+00	-1.268669e+02	9.566183e+00	0	0
3614609	2.297000e+00	-1.504879e+02	-3.190880e-01	0	0
3616563	2.297973e+00	-1.010516e+02	6.372808e-01	0	0
3618516	2.298000e+00	-1.300194e+02	-4.051755e+01	0	0
3620469	2.298000e+00	-1.144267e+02	-3.442371e+01	0	0
3622422	2.298000e+00	-1.008247e+02	-6.093939e-01	0	0
3624375	2.298973e+00	-8.289663e+01	1.009931e-01	0	0
3626328	2.299000e+00	-8.218212e+01	1.213198e-01	0	0
3628281	2.299000e+00	-1.103467e+02	-5.957582e-01	0	0
3630234	2.299000e+00	-6.664401e+01	3.946954e+01	0	0
3632188	2.299000e+00	-7.949326e+01	4.620122e+01	0	0
3634141	2.299973e+00	-7.281827e+01	7.583306e-01	0	0
3636094	2.300000e+00	-3.616176e+01	-5.323284e-01	0	0
3638047	2.300000e+00	-1.855956e+01	7.750080e-01	0	0
3640000	2.300000e+00	1.589411e+01	-4.519460e+01	0	0
3641953	2.300974e+00	1.428684e+01	-1.433603e+01	0	0
3643906	2.301000e+00	2.306703e+01	-2.399508e-01	0	0
3645859	2.301000e+00	1.476732e+01	-3.322574e-01	0	0
3647813	2.301000e+00	4.407021e+01	-1.059697e-01	0	0
3649766	2.301000e+00	2.344528e+01	-1.228755e+00	0	0
3651719	2.301974e+00	4.997135e+01	4.225502e+01	0	0
3653672	2.302000e+00	7.825365e+01	4.572007e-01	0	0
3655625	2.302000e+00	1.034132e+02	-9.654940e-01	0	0
3657578	2.302000e+00	8.015177e+01	3.199578e-01	0	0
3659531	2.302975e+00	9.346870e+01	-4.198398e+01	0	0
3661484	2.303000e+00	8.634116e+01	-1.041362e+01	0	0
3663438	2.303000e+00	1.061048e+02	-4.532134e-01	0	0
3665391	2.303000e+00	1.370600e+02	-5.750971e-01	0	0
3667344	2.303000e+00	1.434884e+02	-3.054755e-01	0	0
3669297	2.303975e+00	1.605952e+02	-1.254798e+00	0	0
3671250	2.304000e+00	1.457582e+02	4.060323e+01	0	0
3673203	2.304000e+00	1.057694e+02	7.044868e+00	0	0
3675156	2.304000e+00	1.617980e+02	-7.965428e-01	0	0
3677109	2.304000e+00	1.822009e+02	2.698610e-01	0	0
3679063	2.304976e+00	1.901905e+02	-4.134330e+01	0	0
3681016	2.305000e+00	2.238772e+02	-5.630190e+00	0	0
3682969	2.305000e+00	1.887451e+02	-3.547568e-01	0	0
3684922	2.305000e+00	1.991001e+02	-5.877708e-01	0	0
3686875	2.305976e+00	1.687822e+02	-2.935854e-01	0	0
3688828	2.306000e+00	1.646328e+02	-1.229633e+00	0	0
3690781	2.306000e+00	1.137025e+02	3.956902e+01	0	0
3692734	2.306000e+00	1.753166e+02	3.369486e-01	0	0
3694688	2.306977e+00	1.462774e+02	-8.542173e-01	0	0
3696641	2.307000e+00	1.354282e+02	2.641798e-01	0	0
3698594	2.307000e+00	9.699642e+01	-3.977212e+01	0	0
3700547	2.307000e+00	6.209119e+01	-3.270323e+01	0	0
3702500	2.307000e+00	9.896929e+00	-4.561847e+00	0	0
3704453	2.307977e+00	-4.921992e-01	-4.931233e-01	0	0
3706406	2.308000e+00	-2.217325e+01	-3.460391e-01	0	0
3708359	2.308000e+00	-3.491617e+01	-1.047858e+00	0	0
3710313	2.308000e+00	-6.217768e+01	4.182469e+01	0	0
3712266	2.308000e+00	-8.667986e+01	4.096965e+01	0	0
3714219	2.308978e+00	-9.419847e+01	-3.311456e-01	0	0
3716172	2.309000e+00	-1.317375e+02	-1.062339e+00	0	0
3718125	2.309000e+00	-1.285218e+02	3.443425e-01	0	0
3720078	2.309000e+00	-1.850114e+02	-4.772302e+01	0	0
3722031	2.309978e+00	-1.917608e+02	-4.565404e+00	0	0
3723984	2.310000e+00	-2.155359e+02	-2.893490e-01	0	0
3725938	2.310000e+00	-2.292381e+02	-5.800241e-01	0	0
3727891	2.310000e+00	-2.574542e+02	-2.394577e-01	0	0
3729844	2.310979e+00	-2.574449e+02	-1.306291e+00	0	0
3731797	2.311000e+00	-2.670491e+02	5.038796e+01	0	0
3733750	2.311000e+00	-2.768170e+02	4.771036e-01	0	0
3735703	2.311000e+00	-3.117815e+02	-9.133370e-01	0	0
3737656	2.311000e+00	-2.698814e+02	3.623775e-01	0	0
3739609	2.311979e+00	-2.871287e+02	-5.057346e+01	0	0
3741563	2.312000e+00	-3.007242e+02	-1.296124e+01	0	0
3743516	2.312000e+00	-3.038085e+02	-6.366964e-01	0	0
3745469	2.312000e+00	-3.196271e+02	-8.226869e-01	0	0
3747422	2.312980e+00	-2.978169e+02	-6.270160e-01	0	0
3749375	2.313000e+00	-3.315849e+02	-1.529802e+00	0	0
3751328	2.313000e+00	-3.436753e+02	4.379038e+01	0	0
3753281	2.313000e+00	-3.434374e+02	8.493487e-02	0	0
3755234	2.313980e+00	-3.413476e+02	-8.776054e-01	0	0
3757188	2.314000e+00	-3.316333e+02	1.068478e-01	0	0
3759141	2.314000e+00	-3.162853e+02	-4.112265e+01	0	0
3761094	2.314000e+00	-3.222283e+02	-2.863667e+01	0	0
3763047	2.314981e+00	-3.230281e+02	-7.048755e-01	0	0
3765000	2.315000e+00	-3.126236e+02	-4.187941e-01	0	0
3766953	2.315000e+00	-3.362320e+02	-3.109359e-01	0	0
3768906	2.315000e+00	-3.454051e+02	-1.017005e+00	0	0
3770859	2.315000e+00	-3.301960e+02	3.835393e+01	0	0
3772813	2.315981e+00	-3.039691e+02	1.875675e-01	0	0
3774766	2.316000e+00	-3.232884e+02	-7.173414e-01	0	0
3776719	2.316000e+00	-3.380402e+02	3.760595e-02	0	0
3778672	2.316000e+00	-3.401056e+02	-3.911907e+01	0	0
3780625	2.316982e+00	-3.390161e+02	-3.452935e+01	0	0
3782578	2.317000e+00	-3.359214e+02	-7.759898e-01	0	0
3784531	2.317000e+00	-3.767438e+02	-3.747874e-01	0	0
3786484	2.317000e+00	-3.719084e+02	-3.245844e-01	0	0
3788438	2.317000e+00	-3.600856e+02	-9.011631e-01	0	0
3790391	2.317982e+00	-3.529071e+02	4.193770e+01	0	0
3792344	2.318000e+00	-3.278450e+02	3.075053e+01	0	0
3794297	2.318000e+00	-3.373162e+02	1.582103e-01	0	0
3796250	2.318000e+00	-3.315893e+02	-1.825785e-01	0	0
3798203	2.318983e+00	-3.240746e+02	-4.806673e+00	0	0
3800156	2.319000e+00	-3.184366e+02	-4.521255e+01	0	0
3802109	2.319000e+00	-3.243344e+02	-2.772885e+01	0	0
3804063	2.319983e+00	-3.268151e+02	-2.513255e-01	0	0
3806016	2.320000e+00	-3.448526e+02	-1.374378e-01	0	0
3807969	2.320000e+00	-3.378258e+02	-1.094427e-01	0	0
3809922	2.320000e+00	-3.257175e+02	-9.711945e-01	0	0
3811875	2.320000e+00	-3.125727e+02	4.701644e+01	0	0
3813828	2.320983e+00	-2.861431e+02	2.381508e+00	0	0
3815781	2.321000e+00	-3.211677e+02	2.256881e-01	0	0
3817734	2.321000e+00	-3.382287e+02	1.663183e-01	0	0
3819688	2.321000e+00	-3.279084e+02	-4.361438e+01	0	0
3821641	2.321984e+00	-3.191899e+02	-1.190480e+01	0	0
3823594	2.322000e+00	-3.385038e+02	-3.863902e-01	0	0
3825547	2.322000e+00	-3.261034e+02	-4.194418e-01	0	0
3827500	2.322000e+00	-3.341386e+02	-1.809822e+00	0	0
3829453	2.322000e+00	-3.200764e+02	-3.065106e+00	0	0
3831406	2.322984e+00	-3.255988e+02	3.523714e+01	0	0
3833359	2.323000e+00	-3.097637e+02	-5.706615e-01	0	0
3835313	2.323000e+00	-2.890654e+02	-1.353071e+00	0	0
3837266	2.323000e+00	-2.789308e+02	-6.442793e-01	0	0
3839219	2.323985e+00	-3.031234e+02	-3.693936e+01	0	0
3841172	2.324000e+00	-2.934788e+02	-1.985671e+01	0	0
3843125	2.324000e+00	-2.743484e+02	-4.851148e-01	0	0
3845078	2.324985e+00	-3.074303e+02	-3.842458e-01	0	0
3847031	2.325000e+00	-3.048123e+02	7.376363e-02	0	0
3848984	2.325000e+00	-3.235900e+02	-6.516138e-01	0	0
3850938	2.325000e+00	-3.207646e+02	3.777068e+01	0	0
3852891	2.325000e+00	-3.115212e+02	9.652416e-02	0	0
3854844	2.325000e+00	-2.964879e+02	-5.839295e-01	0	0
3856797	2.325986e+00	-2.617464e+02	2.025932e-02	0	0
3858750	2.326000e+00	-2.768279e+02	-3.875506e+01	0	0
3860703	2.326000e+00	-2.850011e+02	-2.607846e+01	0	0
3862656	2.326986e+00	-2.569363e+02	-9.342024e+00	0	0
3864609	2.327000e+00	-2.845524e+02	1.396461e+00	0	0
3866563	2.327000e+00	-2.877814e+02	2.149521e+00	0	0
3868516	2.327000e+00	-2.867876e+02	2.141526e+00	0	0
3870469	2.327000e+00	-2.961205e+02	4.081725e+01	0	0
3872422	2.327987e+00	-2.928324e+02	3.401294e+01	0	0
3874375	2.328000e+00	-2.900328e+02	2.436341e+00	0	0
3876328	2.328000e+00	-2.766494e+02	1.699552e+00	0	0
3878281	2.328000e+00	-2.724650e+02	-1.511639e+01	0	0
3880234	2.328987e+00	-2.590164e+02	-3.974558e+01	0	0
3882188	2.329000e+00	-2.483105e+02	-1.374491e+01	0	0
3884141	2.329000e+00	-2.337171e+02	-1.053496e-01	0	0
3886094	2.329000e+00	-2.158869e+02	6.466273e-01	0	0
3888047	2.329988e+00	-1.975216e+02	7.053256e-01	0	0
3890000	2.330000e+00	-1.792043e+02	1.396001e+00	0	0
3891953	2.330000e+00	-1.918974e+02	4.205113e+01	0	0
3893906	2.330000e+00	-1.543364e+02	1.133187e-01	0	0
3895859	2.330988e+00	-1.479844e+02	-7.393189e-01	0	0
3897813	2.331000e+00	-1.715643e+02	-1.062268e+00	0	0
3899766	2.331000e+00	-1.693196e+02	-4.390864e+01	0	0
3901719	2.331000e+00	-1.331951e+02	-3.834038e+00	0	0
3903672	2.331989e+00	-1.159475e+02	-5.513313e+00	0	0
3905625	2.332000e+00	-1.421001e+02	-6.642501e+00	0	0
3907578	2.332000e+00	-1.166105e+02	-6.204038e+00	0	0
3909531	2.332000e+00	-8.472175e+01	-5.039477e+00	0	0
3911484	2.332989e+00	-7.715928e+01	3.410470e+01	0	0
3913438	2.333000e+00	-6.459519e+01	-2.343533e+00	0	0
3915391	2.333000e+00	-4.895641e+01	-2.331002e+00	0	0
3917344	2.333000e+00	-6.263713e+01	-1.293044e+00	0	0
3919297	2.333990e+00	-9.604541e+01	-3.754951e+01	0	0
3921250	2.334000e+00	-6.909019e+01	-2.071091e+01	0	0
3923203	2.334000e+00	-6.083005e+01	2.141341e+00	0	0
3925156	2.334000e+00	-2.266113e+01	2.230106e+00	0	0
3927109	2.334990e+00	7.879042e+00	1.226064e+00	0	0
3929063	2.335000e+00	6.684635e+00	-1.131666e+00	0	0
3931016	2.335000e+00	-1.248182e+01	3.976812e+01	0	0
3932969	2.335000e+00	-2.136106e+01	6.608645e+00	0	0
3934922	2.335990e+00	-3.133901e+00	-8.445729e-01	0	0
3936875	2.336000e+00	-1.794761e+01	-4.000402e-01	0	0
3938828	2.336000e+00	-7.300389e+00	-4.323349e+01	0	0
3940781	2.336000e+00	-4.944897e+01	-2.125723e+01	0	0
3942734	2.336991e+00	-4.473393e+01	-2.741750e+00	0	0
3944688	2.337000e+00	-7.063630e+01	-2.645588e+00	0	0
3946641	2.337000e+00	-8.056002e+01	-2.170007e+00	0	0
3948594	2.337000e+00	-6.674804e+01	-1.716964e+00	0	0
3950547	2.337000e+00	-8.307243e+01	4.228167e+01	0	0
3952500	2.337991e+00	-1.078685e+02	2.923807e+01	0	0
3954453	2.338000e+00	-1.211115e+02	1.378709e+00	0	0
3956406	2.338000e+00	-1.262409e+02	1.130519e+00	0	0
3958359	2.338992e+00	-1.519468e+02	-1.447569e+01	0	0
3960313	2.339000e+00	-2.013131e+02	-4.430242e+01	0	0
3962266	2.339000e+00	-2.314377e+02	-2.637752e+01	0	0
3964219	2.339000e+00	-2.264716e+02	2.461981e+00	0	0
3966172	2.339992e+00	-2.423330e+02	3.653732e+00	0	0
3968125	2.340000e+00	-2.579606e+02	3.800867e+00	0	0
3970078	2.340000e+00	-2.833558e+02	2.527607e+00	0	0
3972031	2.340000e+00	-2.699671e+02	4.917336e+01	0	0
3973984	2.340992e+00	-2.701645e+02	9.644802e-02	0	0
3975938	2.341000e+00	-2.737366e+02	-3.676756e-01	0	0
3977891	2.341000e+00	-2.703568e+02	4.845454e-02	0	0
3979844	2.341000e+00	-2.910239e+02	-4.746707e+01	0	0
3981797	2.341000e+00	-3.086478e+02	-7.351038e+00	0	0
3983750	2.341993e+00	-2.927250e+02	-3.545313e+00	0	0
3985703	2.342000e+00	-2.907629e+02	-4.466782e+00	0	0
3987656	2.342000e+00	-3.001211e+02	-3.677196e+00	0	0
3989609	2.342000e+00	-3.063554e+02	-2.315113e+00	0	0
3991563	2.342000e+00	-3.059891e+02	3.868911e+01	0	0
3993516	2.342994e+00	-2.961197e+02	-1.955112e+00	0	0
3995469	2.343000e+00	-2.923540e+02	-1.977886e+00	0	0
3997422	2.343000e+00	-2.927792e+02	-1.112647e+00	0	0
3999375	2.343994e+00	-3.042767e+02	-3.815801e+01	0	0
4001328	2.344000e+00	-2.911556e+02	-1.902236e+01	0	0
4003281	2.344000e+00	-3.212687e+02	1.160672e+00	0	0
4005234	2.344000e+00	-3.283046e+02	2.314001e-01	0	0
4007188	2.344995e+00	-3.167825e+02	-1.767228e-01	0	0
4009141	2.345000e+00	-3.377125e+02	-3.824574e-01	0	0
4011094	2.345000e+00	-3.117279e+02	3.965427e+01	0	0
4013047	2.345000e+00	-2.891329e+02	-4.100573e-02	0	0
4015000	2.345995e+00	-3.385192e+02	-3.034433e-01	0	0
4016953	2.346000e+00	-3.133618e+02	6.508439e-01	0	0
4018906	2.346000e+00	-2.912234e+02	-3.912183e+01	0	0
4020859	2.346000e+00	-3.107695e+02	-9.610397e+00	0	0
4022813	2.346996e+00	-2.988727e+02	2.455594e+00	0	0
4024766	2.347000e+00	-3.158355e+02	2.756506e+00	0	0
4026719	2.347000e+00	-3.079936e+02	3.321170e+00	0	0
4028672	2.347000e+00	-3.258595e+02	3.519858e+00	0	0
4030625	2.347000e+00	-3.346309e+02	4.490997e+01	0	0
4032578	2.347996e+00	-3.304960e+02	1.906809e+01	0	0
4034531	2.348000e+00	-3.120731e+02	3.209245e+00	0	0
4036484	2.348000e+00	-3.096173e+02	2.942871e+00	0	0
4038438	2.348000e+00	-3.228562e+02	-4.091664e+01	0	0
4040391	2.348000e+00	-3.889403e+02	-4.255684e+01	0	0
4042344	2.348997e+00	-3.968418e+02	-2.209342e+01	0	0
4044297	2.349000e+00	-3.905026e+02	1.351812e+00	0	0
4046250	2.349000e+00	-3.766387e+02	5.990988e-01	0	0
4048203	2.349997e+00	-3.129770e+02	-2.287104e-01	0	0
4050156	2.350000e+00	-2.308817e+02	1.930193e+01	0	0
4052109	2.350000e+00	-1.380262e+02	5.013184e+01	0	0
4054063	2.350000e+00	-2.538331e+01	-1.079799e-01	0	0
4056016	2.350000e+00	1.011522e+02	-2.622348e-01	0	0
4057969	2.350998e+00	3.076787e+02	-9.981584e-02	0	0
4059922	2.351000e+00	5.968660e+02	-5.226283e+01	0	0
4061875	2.351000e+00	8.820782e+02	-3.315625e+00	0	0
4063828	2.351000e+00	1.192115e+03	-3.564034e+00	0	0
4065781	2.351998e+00	1.395315e+03	-4.086945e+00	0	0
4067734	2.352000e+00	1.654046e+03	-4.602530e+00	0	0
4069688	2.352000e+00	1.858173e+03	-5.030834e+00	0	0
4071641	2.352998e+00	1.811476e+03	3.974522e+01	0	0
4073594	2.353000e+00	1.709669e+03	-4.935704e+00	0	0
4075547	2.353000e+00	1.406813e+03	-4.686024e+00	0	0
4077500	2.353000e+00	1.089957e+03	-4.014230e+00	0	0
4079453	2.353000e+00	8.650751e+02	-4.466716e+01	0	0
4081406	2.353000e+00	6.049075e+02	-3.857376e+00	0	0
4083359	2.353999e+00	4.184107e+02	-1.309801e+00	0	0
4085313	2.354000e+00	7.602487e+01	-2.253151e-01	0	0
4087266	2.354000e+00	-2.240254e+02	-1.962459e-01	0	0
4089219	2.354999e+00	-3.552405e+02	-2.249980e-01	0	0
4091172	2.355000e+00	-4.000759e+02	3.944961e+01	0	0
4093125	2.355000e+00	-4.252579e+02	3.931473e+00	0	0
4095078	2.355000e+00	-3.876137e+02	-2.088760e-01	0	0
4097031	2.355000e+00	-3.708995e+02	-1.853992e-01	0	0
4098984	2.356000e+00	-3.454852e+02	-3.979677e+01	0	0
4100938	2.356000e+00	-3.181868e+02	-1.735556e+01	0	0
4102891	2.356000e+00	-2.880298e+02	-1.625619e-01	0	0
4104844	2.356000e+00	-2.473345e+02	5.965827e-01	0	0
4106797	2.357000e+00	-2.581873e+02	1.220726e+00	0	0
4108750	2.357000e+00	-2.199558e+02	1.781762e+00	0	0
4110703	2.357000e+00	-2.143217e+02	4.290705e+01	0	0
4112656	2.357000e+00	-1.904424e+02	1.545304e+01	0	0
4114609	2.358000e+00	-1.952107e+02	2.919636e+00	0	0
4116563	2.358000e+00	-2.348093e+02	3.084752e+00	0	0
4118516	2.358000e+00	-2.179481e+02	-3.623637e+01	0	0
4120469	2.358000e+00	-2.163052e+02	-4.163426e+01	0	0
4122422	2.358001e+00	-2.291705e+02	-2.329012e+01	0	0
4124375	2.359000e+00	-2.304592e+02	4.387796e+00	0	0
4126328	2.359000e+00	-2.249703e+02	2.955045e+00	0	0
4128281	2.359001e+00	-2.077246e+02	1.617912e+00	0	0
4130234	2.360000e+00	-2.253539e+02	2.487252e+01	0	0
4132188	2.360000e+00	-2.224837e+02	5.170616e+01	0	0
4134141	2.360000e+00	-2.094631e+02	-2.675524e-01	0	0
4136094	2.360000e+00	-2.146018e+02	-1.533505e-01	0	0
4138047	2.360002e+00	-1.924449e+02	-8.105185e-01	0	0
4140000	2.361000e+00	-2.035222e+02	-5.410590e+01	0	0
4141953	2.361000e+00	-2.014798e+02	-1.132520e+01	0	0
4143906	2.361000e+00	-1.934430e+02	-1.984495e-01	0	0
4145859	2.361002e+00	-2.077785e+02	-5.231674e-01	0	0
4147813	2.362000e+00	-1.942794e+02	-1.070112e+00	0	0
4149766	2.362000e+00	-2.126673e+02	-1.131658e+00	0	0
4151719	2.362000e+00	-1.978472e+02	5.030340e+01	0	0
4153672	2.362000e+00	-2.018582e+02	-8.489790e-01	0	0
4155625	2.362003e+00	-2.079349e+02	-1.267101e-01	0	0
4157578	2.363000e+00	-1.829650e+02	-3.064001e-01	0	0
4159531	2.363000e+00	-1.917617e+02	-4.781749e+01	0	0
4161484	2.363000e+00	-1.833049e+02	-8.003516e+00	0	0
4163438	2.363004e+00	-1.755356e+02	-2.028855e-01	0	0
4165391	2.364000e+00	-2.034602e+02	-1.741529e-01	0	0
4167344	2.364000e+00	-1.926600e+02	-2.192911e-01	0	0
4169297	2.364000e+00	-1.832807e+02	-6.328285e-02	0	0
4171250	2.364004e+00	-1.768937e+02	4.000341e+01	0	0
4173203	2.365000e+00	-1.712673e+02	-3.156616e-01	0	0
4175156	2.365000e+00	-1.550414e+02	-1.239447e-01	0	0
4177109	2.365000e+00	-1.246278e+02	-2.938600e-01	0	0
4179063	2.365000e+00	-1.293564e+02	-3.833434e+01	0	0
4181016	2.365005e+00	-1.578562e+02	-2.440627e+01	0	0
4182969	2.366000e+00	-1.348129e+02	-1.326846e-01	0	0
4184922	2.366000e+00	-1.483963e+02	-1.870808e-01	0	0
4186875	2.366000e+00	-1.700753e+02	-2.122604e-01	0	0
4188828	2.366005e+00	-1.636190e+02	-5.236041e-02	0	0
4190781	2.367000e+00	-1.650795e+02	3.726154e+01	0	0
4192734	2.367000e+00	-1.532333e+02	1.271127e+01	0	0
4194688	2.367000e+00	-1.420692e+02	-1.575328e-01	0	0
4196641	2.367000e+00	-1.130253e+02	-3.089632e-01	0	0
4198594	2.367005e+00	-1.178980e+02	-3.846562e+01	0	0
4200547	2.368000e+00	-1.340016e+02	-3.309149e+01	0	0
4202500	2.368000e+00	-1.154648e+02	-1.116749e+01	0	0
4204453	2.368000e+00	-1.195844e+02	-1.464782e-01	0	0
4206406	2.368006e+00	-1.222828e+02	-2.164447e-01	0	0
4208359	2.369000e+00	-1.204158e+02	-5.018711e-02	0	0
4210313	2.369000e+00	-1.244799e+02	3.860548e+01	0	0
4212266	2.369000e+00	-1.355884e+02	4.355768e+01	0	0
4214219	2.369000e+00	-1.150253e+02	-3.623554e-01	0	0
4216172	2.369006e+00	-9.300630e+01	-6.729837e-02	0	0
4218125	2.370000e+00	-1.074678e+02	-4.186826e-01	0	0
4220078	2.370000e+00	-1.021285e+02	-4.662263e+01	0	0
4222031	2.370000e+00	-1.018864e+02	-8.821289e+00	0	0
4223984	2.370007e+00	-9.796042e+01	-1.964600e-01	0	0
4225938	2.371000e+00	-9.812577e+01	-1.564985e-01	0	0
4227891	2.371000e+00	-7.149342e+01	-2.682720e-01	0	0
4229844	2.371000e+00	-8.160590e+01	7.571728e-02	0	0
4231797	2.371007e+00	-5.919587e+01	4.709184e+01	0	0
4233750	2.372000e+00	-5.325209e+01	-5.188074e-01	0	0
4235703	2.372000e+00	-5.859825e+01	-8.996171e-02	0	0
4237656	2.372000e+00	-3.924102e+01	-5.226384e-01	0	0
4239609	2.372000e+00	-4.306859e+01	-4.614090e+01	0	0
4241563	2.372008e+00	-3.101078e+01	-1.148840e+01	0	0
4243516	2.373000e+00	-4.564811e+01	-2.786947e-01	0	0
4245469	2.373000e+00	-3.558140e+01	-2.560474e-01	0	0
4247422	2.373008e+00	-4.062020e+01	-3.585802e-01	0	0
4249375	2.374000e+00	-4.500408e+01	-1.432842e-02	0	0
4251328	2.374000e+00	-1.564651e+01	4.107048e+01	0	0
4253281	2.374000e+00	2.528469e+01	-5.960256e-01	0	0
4255234	2.374000e+00	5.307462e+01	-1.697705e-01	0	0
4257188	2.374009e+00	3.876751e+01	-6.036826e-01	0	0
4259141	2.375000e+00	4.223002e+01	-4.074096e+01	0	0
4261094	2.375000e+00	4.137984e+01	-1.428148e+01	0	0
4263047	2.375000e+00	6.943956e+01	-3.097250e-01	0	0
4265000	2.375009e+00	6.877007e+01	-3.198150e-01	0	0
4266953	2.376000e+00	8.937815e+01	-4.100359e-01	0	0
4268906	2.376000e+00	9.277683e+01	-5.610327e-02	0	0
4270859	2.376000e+00	1.012018e+02	4.073274e+01	0	0
4272813	2.376000e+00	9.903041e+01	1.137410e+01	0	0
4274766	2.376010e+00	1.119840e+02	-2.760641e-01	0	0
4276719	2.377000e+00	1.537315e+02	-6.286699e-01	0	0
4278672	2.377000e+00	1.667398e+02	-4.288748e+01	0	0
4280625	2.377000e+00	1.656941e+02	-2.645429e+01	0	0
4282578	2.377010e+00	1.880133e+02	-2.291856e-01	0	0
4284531	2.378000e+00	1.850587e+02	-3.564706e-01	0	0
4286484	2.378000e+00	1.548193e+02	-4.055774e-01	0	0
4288438	2.378000e+00	1.748043e+02	-5.856335e-02	0	0
4290391	2.378011e+00	1.981796e+02	4.484870e+01	0	0
4292344	2.379000e+00	2.235928e+02	4.569893e+01	0	0
4294297	2.379000e+00	2.268515e+02	-9.409189e-01	0	0
4296250	2.379000e+00	2.548228e+02	-3.665527e-01	0	0
4298203	2.379000e+00	2.698467e+02	-2.655185e+00	0	0
4300156	2.379011e+00	2.622217e+02	-4.806849e+01	0	0
4302109	2.380000e+00	2.853904e+02	-2.235818e+01	0	0
4304063	2.380000e+00	3.012300e+02	-1.265091e-01	0	0
4306016	2.380000e+00	3.001744e+02	-3.067921e-01	0	0
4307969	2.380012e+00	3.304062e+02	-4.224412e-01	0	0
4309922	2.381000e+00	3.302011e+02	8.767792e-01	0	0
4311875	2.381000e+00	3.280088e+02	4.998214e+01	0	0
4313828	2.381000e+00	3.385131e+02	2.124727e+00	0	0
4315781	2.381000e+00	3.543920e+02	7.460040e-01	0	0
4317734	2.381000e+00	3.755118e+02	-7.451829e-01	0	0
4319688	2.381013e+00	3.755880e+02	-4.381575e+01	0	0
4321641	2.382000e+00	3.709701e+02	1.544580e-01	0	0
4323594	2.382000e+00	3.753926e+02	-1.219197e+00	0	0
4325547	2.382000e+00	3.381234e+02	-3.146900e+00	0	0
4327500	2.382013e+00	3.432282e+02	-3.662615e+00	0	0
4329453	2.383000e+00	3.180308e+02	-1.659925e+00	0	0
4331406	2.383000e+00	3.012426e+02	3.208165e+01	0	0
4333359	2.383000e+00	2.924895e+02	-9.675729e-01	0	0
4335313	2.383000e+00	2.878915e+02	-4.537226e-01	0	0
4337266	2.383013e+00	2.685116e+02	-8.222877e-01	0	0
4339219	2.384000e+00	2.401525e+02	-2.914991e+01	0	0
4341172	2.384000e+00	2.051563e+02	-1.130436e+01	0	0
4343125	2.384014e+00	1.659665e+02	2.194934e+00	0	0
4345078	2.385000e+00	1.381749e+02	2.025937e+00	0	0
4347031	2.385000e+00	1.261920e+02	1.318196e+00	0	0
4348984	2.385000e+00	1.131553e+02	5.976524e-01	0	0
4350938	2.385000e+00	7.834257e+01	3.055957e+01	0	0
4352891	2.385000e+00	6.052303e+01	1.290716e+01	0	0
4354844	2.385014e+00	4.324885e+01	-1.165009e-01	0	0
4356797	2.386000e+00	2.401568e+01	-4.644223e-01	0	0
4358750	2.386000e+00	-4.274096e-01	-3.286152e+01	0	0
4360703	2.386000e+00	-3.036751e+01	-1.458117e+01	0	0
4362656	2.386015e+00	-5.782634e+01	-7.674058e-02	0	0
4364609	2.387000e+00	-6.030229e+01	-1.328473e-01	0	0
4366563	2.387000e+00	-9.608670e+01	-2.291383e-01	0	0
4368516	2.387000e+00	-1.093078e+02	2.197311e-01	0	0
4370469	2.387000e+00	-1.207340e+02	3.856786e+01	0	0
4372422	2.387015e+00	-1.232672e+02	3.568901e+01	0	0
4374375	2.388000e+00	-1.196851e+02	-4.894418e-01	0	0
4376328	2.388000e+00	-1.323889e+02	9.809165e-02	0	0
4378281	2.388000e+00	-1.460598e+02	-7.195547e-01	0	0
4380234	2.388015e+00	-1.635931e+02	-4.444816e+01	0	0
4382188	2.389000e+00	-1.564467e+02	-5.845066e-01	0	0
4384141	2.389000e+00	-1.556324e+02	-2.823925e-01	0	0
4386094	2.389000e+00	-1.576922e+02	-5.158899e-02	0	0
4388047	2.389016e+00	-1.517760e+02	4.669420e-02	0	0
4390000	2.389984e+00	-1.585958e+02	2.341391e+00	0	0
4391953	2.389016e+00	-1.537706e+02	4.930758e+01	0	0
4393906	2.390000e+00	-1.687347e+02	-8.040715e-01	0	0
4395859	2.390000e+00	-1.431708e+02	2.134075e-01	0	0
4397813	2.390000e+00	-1.649022e+02	-8.580049e-01	0	0
4399766	2.390017e+00	-1.727259e+02	-4.865961e+01	0	0
4401719	2.391000e+00	-1.793310e+02	5.099327e-01	0	0
4403672	2.391000e+00	-1.792074e+02	-8.241323e-01	0	0
4405625	2.391000e+00	-1.669095e+02	-3.032611e-01	0	0
4407578	2.391000e+00	-1.837130e+02	-2.946789e-01	0	0
4409531	2.391017e+00	-1.534030e+02	4.600070e-01	0	0
4411484	2.392000e+00	-1.753455e+02	4.101053e+01	0	0
4413438	2.392000e+00	-1.589578e+02	-7.301056e-01	0	0
4415391	2.392000e+00	-1.420487e+02	1.475485e-01	0	0
4417344	2.392018e+00	-1.544092e+02	-6.151710e-01	0	0
4419297	2.393000e+00	-1.589334e+02	-3.867249e+01	0	0
4421250	2.393000e+00	-1.814592e+02	-2.916932e+01	0	0
