time	gsr	ecg	emg_trapezius	emg_corrugator	emg_zygomaticus
469	2.082000e+00	5.752291e+01	9.826283e-01	0	0
2422	2.082000e+00	5.753200e+01	8.074675e-01	0	0
4375	2.082000e+00	7.889372e+01	4.460611e+00	0	0
6328	2.082000e+00	7.841695e+01	1.104078e+01	0	0
8281	2.082000e+00	9.352498e+01	1.402454e+01	0	0
10234	2.082000e+00	1.098673e+02	1.386872e+01	0	0
12188	2.082000e+00	1.165522e+02	1.011542e+01	0	0
14141	2.082000e+00	1.111959e+02	4.061814e+00	0	0
16094	2.082000e+00	1.165846e+02	-3.335404e-02	0	0
18047	2.082000e+00	1.266767e+02	5.763580e-01	0	0
20000	2.082000e+00	1.277914e+02	-1.879873e+00	0	0
21953	2.082000e+00	1.355317e+02	-8.667388e+00	0	0
23906	2.082000e+00	1.502134e+02	-1.290479e+01	0	0
25859	2.082000e+00	1.645507e+02	-1.466583e+01	0	0
27813	2.082000e+00	1.727106e+02	-1.325837e+01	0	0
29766	2.082000e+00	1.778376e+02	-8.858884e+00	0	0
31719	2.082000e+00	1.888079e+02	-2.752153e+00	0	0
33672	2.082000e+00	1.985131e+02	1.707971e-01	0	0
35625	2.082000e+00	2.063132e+02	-3.780458e-01	0	0
37578	2.082000e+00	2.177202e+02	1.373351e+00	0	0
39531	2.082000e+00	2.127044e+02	6.281492e+00	0	0
41484	2.082000e+00	2.198157e+02	8.380848e+00	0	0
43438	2.082000e+00	2.242792e+02	8.026028e+00	0	0
45391	2.082000e+00	2.467121e+02	5.758069e+00	0	0
47344	2.082000e+00	2.677526e+02	2.351495e+00	0	0
49297	2.082000e+00	2.856957e+02	-4.698373e-01	0	0
51250	2.082000e+00	3.026207e+02	-3.403732e-01	0	0
53203	2.082000e+00	3.222455e+02	-3.905936e-01	0	0
55156	2.082000e+00	3.183506e+02	-5.561102e-01	0	0
57109	2.082000e+00	3.331343e+02	-1.426010e+00	0	0
59063	2.082000e+00	3.526386e+02	-3.114522e+00	0	0
61016	2.082000e+00	3.599181e+02	-3.087585e+00	0	0
62969	2.082000e+00	3.655617e+02	-1.811602e+00	0	0
64922	2.082000e+00	3.778077e+02	-7.821437e-01	0	0
66875	2.082000e+00	4.075463e+02	-9.314133e-01	0	0
68828	2.082000e+00	4.293382e+02	-8.717366e-01	0	0
70781	2.082000e+00	4.326208e+02	-1.010654e+00	0	0
72734	2.082000e+00	4.382378e+02	-1.660824e+00	0	0
74688	2.082000e+00	4.545759e+02	-2.238960e+00	0	0
76641	2.082000e+00	4.682850e+02	-2.533601e+00	0	0
78594	2.082000e+00	4.780905e+02	-2.668689e+00	0	0
80547	2.082000e+00	4.929903e+02	-2.715610e+00	0	0
82500	2.082000e+00	5.136169e+02	-2.664131e+00	0	0
84453	2.082000e+00	5.268243e+02	-2.520587e+00	0	0
86406	2.082000e+00	5.295749e+02	-2.285958e+00	0	0
88359	2.082000e+00	5.495418e+02	-1.968327e+00	0	0
90313	2.082000e+00	5.640286e+02	-1.552625e+00	0	0
92266	2.082000e+00	5.702733e+02	-1.130121e+00	0	0
94219	2.082000e+00	5.790009e+02	-9.793556e-01	0	0
96172	2.082000e+00	5.842397e+02	-1.003847e+00	0	0
98125	2.082000e+00	5.939090e+02	-1.007037e+00	0	0
100078	2.082000e+00	5.811434e+02	-1.013996e+00	0	0
102031	2.082000e+00	5.836171e+02	-1.027490e+00	0	0
103984	2.082000e+00	5.829413e+02	-1.009025e+00	0	0
105938	2.082000e+00	5.828582e+02	-8.693520e-01	0	0
107891	2.082000e+00	5.852418e+02	-7.047215e-01	0	0
109844	2.082000e+00	5.675656e+02	-5.610010e-01	0	0
111797	2.082000e+00	5.163051e+02	-4.603319e-01	0	0
113750	2.082000e+00	5.024319e+02	-4.307091e-01	0	0
115703	2.082000e+00	4.732153e+02	-3.100844e-01	0	0
117656	2.082000e+00	4.347570e+02	2.507497e-01	0	0
119609	2.082000e+00	4.099463e+02	1.019826e+00	0	0
121563	2.082000e+00	3.775181e+02	1.714015e+00	0	0
123516	2.082000e+00	3.601220e+02	2.362520e+00	0	0
125469	2.082000e+00	3.231269e+02	2.949082e+00	0	0
127422	2.082000e+00	2.975351e+02	3.466072e+00	0	0
129375	2.081732e+00	2.679286e+02	3.916233e+00	0	0
131328	2.081000e+00	2.353200e+02	4.254034e+00	0	0
133281	2.081268e+00	2.163414e+02	4.898560e+00	0	0
135234	2.082000e+00	1.943353e+02	5.963256e+00	0	0
137188	2.082000e+00	1.653944e+02	6.071250e+00	0	0
139141	2.082000e+00	1.316486e+02	5.531530e+00	0	0
141094	2.082000e+00	1.097284e+02	4.435989e+00	0	0
143047	2.082000e+00	8.899298e+01	3.049462e+00	0	0
145000	2.081731e+00	7.757477e+01	1.185455e+00	0	0
146953	2.081000e+00	6.587557e+01	-1.331694e+00	0	0
148906	2.081269e+00	4.727597e+01	-2.521871e+00	0	0
150859	2.081731e+00	3.753767e+01	-2.436391e+00	0	0
152813	2.081270e+00	1.303069e+01	-2.514483e+00	0	0
154766	2.082000e+00	8.614889e-01	-2.560866e+00	0	0
156719	2.082000e+00	-2.212133e+01	-2.554770e+00	0	0
158672	2.082000e+00	-2.843998e+01	-2.791829e+00	0	0
160625	2.081730e+00	-3.161172e+01	-3.857252e+00	0	0
162578	2.081000e+00	-3.446391e+01	-4.766045e+00	0	0
164531	2.081000e+00	-3.008126e+01	-5.480021e+00	0	0
166484	2.081000e+00	-3.245158e+01	-6.276044e+00	0	0
168438	2.081000e+00	-1.672634e+01	-6.502011e+00	0	0
170391	2.081000e+00	-2.180742e+01	-6.234084e+00	0	0
172344	2.081000e+00	-4.644033e+01	-5.418361e+00	0	0
174297	2.081000e+00	-5.099622e+01	-4.518777e+00	0	0
176250	2.081000e+00	-5.782295e+01	-4.282134e+00	0	0
178203	2.081000e+00	-6.539415e+01	-3.847915e+00	0	0
180156	2.081000e+00	-6.751928e+01	-3.273996e+00	0	0
182109	2.081000e+00	-6.511766e+01	-2.850113e+00	0	0
184063	2.081000e+00	-5.508010e+01	-2.883294e+00	0	0
186016	2.081000e+00	-6.094053e+01	-3.012316e+00	0	0
187969	2.081000e+00	-5.815075e+01	-2.472844e+00	0	0
189922	2.081000e+00	-5.762309e+01	-3.438922e-02	0	0
191875	2.081000e+00	-5.861993e+01	1.224780e+00	0	0
193828	2.081000e+00	-6.775493e+01	1.060430e+00	0	0
195781	2.081000e+00	-7.322974e+01	-5.445241e-01	0	0
197734	2.081000e+00	-7.666084e+01	-2.355847e+00	0	0
199688	2.081000e+00	-7.785156e+01	-2.078473e+00	0	0
201641	2.081000e+00	-7.330299e+01	-1.653454e+00	0	0
203594	2.081000e+00	-7.413868e+01	-2.478064e+00	0	0
205547	2.081000e+00	-6.255925e+01	-7.389262e+00	0	0
207500	2.081000e+00	-5.855668e+01	-1.024602e+01	0	0
209453	2.081000e+00	-4.819951e+01	-8.554468e+00	0	0
211406	2.081000e+00	-5.678162e+01	-3.851828e+00	0	0
213359	2.081000e+00	-7.634989e+01	-6.503296e-01	0	0
215313	2.081000e+00	-6.885934e+01	-6.619451e-01	0	0
217266	2.081000e+00	-7.780393e+01	2.808019e+00	0	0
219219	2.081000e+00	-7.665655e+01	6.903347e+00	0	0
221172	2.081000e+00	-7.236758e+01	7.200816e+00	0	0
223125	2.081000e+00	-7.437427e+01	3.028172e+00	0	0
225078	2.081000e+00	-6.586696e+01	-2.687409e+00	0	0
227031	2.081000e+00	-6.981895e+01	-2.226756e+00	0	0
228984	2.081000e+00	-5.589890e+01	-3.411023e+00	0	0
230938	2.081000e+00	-6.253045e+01	-7.083774e+00	0	0
232891	2.081000e+00	-7.649090e+01	-8.221602e+00	0	0
234844	2.081000e+00	-7.925605e+01	-8.163015e+00	0	0
236797	2.081000e+00	-8.802008e+01	-8.057734e+00	0	0
238750	2.081000e+00	-8.377882e+01	-7.700346e+00	0	0
240703	2.081000e+00	-8.866757e+01	-7.069799e+00	0	0
242656	2.081000e+00	-9.080143e+01	-6.133532e+00	0	0
244609	2.081000e+00	-8.503581e+01	-4.731954e+00	0	0
246563	2.081000e+00	-6.425821e+01	-3.172168e+00	0	0
248516	2.081000e+00	-5.368025e+01	-2.780799e+00	0	0
250469	2.081000e+00	-5.860630e+01	-3.201558e+00	0	0
252422	2.081000e+00	-7.065928e+01	-3.561291e+00	0	0
254375	2.081000e+00	-8.053501e+01	-3.861335e+00	0	0
256328	2.081000e+00	-9.078914e+01	-3.932899e+00	0	0
258281	2.081000e+00	-1.005127e+02	-3.955184e+00	0	0
260234	2.081000e+00	-8.668876e+01	-4.015556e+00	0	0
262188	2.081000e+00	-8.300325e+01	-3.992361e+00	0	0
264141	2.081000e+00	-9.498388e+01	-3.914692e+00	0	0
266094	2.081000e+00	-8.927227e+01	-3.790293e+00	0	0
268047	2.081000e+00	-7.060599e+01	-3.623412e+00	0	0
270000	2.081000e+00	-6.126958e+01	-3.418168e+00	0	0
271953	2.081000e+00	-6.960708e+01	-3.178542e+00	0	0
273906	2.081000e+00	-7.532927e+01	-2.909192e+00	0	0
275859	2.081000e+00	-6.965304e+01	-2.612214e+00	0	0
277813	2.081000e+00	-6.561388e+01	-2.299110e+00	0	0
279766	2.081000e+00	-6.813374e+01	-1.945640e+00	0	0
281719	2.081000e+00	-6.370234e+01	-1.621997e+00	0	0
283672	2.081000e+00	-4.887509e+01	-1.512100e+00	0	0
285625	2.081000e+00	-4.366204e+01	-1.486658e+00	0	0
287578	2.081000e+00	-3.450083e+01	-1.335673e+00	0	0
289531	2.081000e+00	-2.522883e+01	-1.138149e+00	0	0
291484	2.081000e+00	-2.929422e+01	-1.329197e+00	0	0
293438	2.081000e+00	-3.713709e+01	-1.228606e+00	0	0
295391	2.081000e+00	-4.901590e+01	-1.212310e+00	0	0
297344	2.081000e+00	-4.911335e+01	-1.188395e+00	0	0
299297	2.081000e+00	-4.759118e+01	-1.263863e+00	0	0
301250	2.081000e+00	-5.367461e+01	-1.914146e+00	0	0
303203	2.081000e+00	-4.312970e+01	-1.989301e+00	0	0
305156	2.081000e+00	-3.653417e+01	-8.399170e-01	0	0
307109	2.081000e+00	-3.108669e+01	-5.788845e-01	0	0
309063	2.081000e+00	-3.623550e+01	-1.707039e-01	0	0
311016	2.081000e+00	-3.054115e+01	1.786868e-01	0	0
312969	2.081000e+00	-4.534370e+01	5.171102e-01	0	0
314922	2.081000e+00	-4.731229e+01	8.243348e-01	0	0
316875	2.081000e+00	-4.978586e+01	1.098317e+00	0	0
318828	2.081000e+00	-6.491982e+01	1.332139e+00	0	0
320781	2.081000e+00	-5.557485e+01	1.520192e+00	0	0
322734	2.081000e+00	-5.818092e+01	1.656502e+00	0	0
324688	2.081000e+00	-6.301351e+01	1.735251e+00	0	0
326641	2.081000e+00	-5.020173e+01	1.747984e+00	0	0
328594	2.081000e+00	-3.070402e+01	1.692326e+00	0	0
330547	2.081000e+00	-3.852737e+01	1.587799e+00	0	0
332500	2.081000e+00	-5.920283e+01	1.450523e+00	0	0
334453	2.081000e+00	-6.311931e+01	1.281154e+00	0	0
336406	2.081000e+00	-6.389518e+01	1.082652e+00	0	0
338359	2.081000e+00	-5.299244e+01	8.573894e-01	0	0
340313	2.081000e+00	-4.740184e+01	6.076494e-01	0	0
342266	2.081000e+00	-5.209075e+01	3.365095e-01	0	0
344219	2.081000e+00	-4.983298e+01	4.501095e-02	0	0
346172	2.081000e+00	-5.820881e+01	-2.594540e-01	0	0
348125	2.081000e+00	-4.671737e+01	-5.927546e-01	0	0
350078	2.081000e+00	-5.738097e+01	-8.812658e-01	0	0
352031	2.081000e+00	-4.970698e+01	-1.144459e+00	0	0
353984	2.081000e+00	-5.373026e+01	-1.609752e+00	0	0
355938	2.081000e+00	-6.092348e+01	-1.865747e+00	0	0
357891	2.081000e+00	-5.424413e+01	-1.815110e+00	0	0
359844	2.081000e+00	-5.893185e+01	-1.479582e+00	0	0
361797	2.081000e+00	-7.758321e+01	-1.154648e+00	0	0
363750	2.081000e+00	-7.493569e+01	-1.183179e+00	0	0
365703	2.081000e+00	-6.309590e+01	-1.117223e+00	0	0
367656	2.081000e+00	-5.155685e+01	-1.223533e+00	0	0
369609	2.081000e+00	-4.598083e+01	-2.400574e+00	0	0
371563	2.081000e+00	-6.331954e+01	-4.265789e+00	0	0
373516	2.081000e+00	-5.180046e+01	-5.329664e+00	0	0
375469	2.080722e+00	-5.262093e+01	-5.032748e+00	0	0
377422	2.080278e+00	-4.547051e+01	-2.955665e+00	0	0
379375	2.081000e+00	-5.725192e+01	-1.404789e+00	0	0
381328	2.081000e+00	-6.815944e+01	-1.486906e+00	0	0
383281	2.081000e+00	-5.459077e+01	-8.297285e-01	0	0
385234	2.080722e+00	-4.962313e+01	2.625976e+00	0	0
387188	2.080000e+00	-4.863128e+01	5.363422e+00	0	0
389141	2.080000e+00	-5.653793e+01	3.656429e+00	0	0
391094	2.080279e+00	-5.415233e+01	-1.036265e+00	0	0
393047	2.081000e+00	-5.489501e+01	-4.563750e+00	0	0
395000	2.081000e+00	-7.559723e+01	-3.921953e+00	0	0
396953	2.081000e+00	-8.157183e+01	-4.711582e+00	0	0
398906	2.081000e+00	-6.204206e+01	-7.656196e+00	0	0
400859	2.080721e+00	-6.042873e+01	-9.868668e+00	0	0
402813	2.080000e+00	-5.216977e+01	-1.016083e+01	0	0
404766	2.080000e+00	-3.324626e+01	-7.834205e+00	0	0
406719	2.080000e+00	-5.076597e+01	-7.188694e+00	0	0
408672	2.080000e+00	-7.038127e+01	-6.914654e+00	0	0
410625	2.080000e+00	-7.151098e+01	-5.942818e+00	0	0
412578	2.080000e+00	-7.101009e+01	-4.338953e+00	0	0
414531	2.080000e+00	-8.546082e+01	-1.662062e+00	0	0
416484	2.080000e+00	-9.970939e+01	5.745148e-02	0	0
418438	2.080000e+00	-9.993831e+01	-2.407382e-01	0	0
420391	2.080000e+00	-8.650690e+01	1.823302e-01	0	0
422344	2.080000e+00	-7.422820e+01	8.381348e-01	0	0
424297	2.080000e+00	-5.508370e+01	2.282432e+00	0	0
426250	2.080000e+00	-4.308704e+01	3.346902e+00	0	0
428203	2.080000e+00	-4.943774e+01	6.276100e+00	0	0
430156	2.080000e+00	-3.782515e+01	7.817874e+00	0	0
432109	2.080000e+00	-5.423669e+01	7.787297e+00	0	0
434063	2.080000e+00	-7.587743e+01	1.096202e+01	0	0
436016	2.080000e+00	-6.854537e+01	1.368946e+01	0	0
437969	2.080000e+00	-6.605001e+01	1.354366e+01	0	0
439922	2.080000e+00	-7.576291e+01	1.351260e+01	0	0
441875	2.080000e+00	-8.874698e+01	7.960220e+00	0	0
443828	2.080000e+00	-1.029043e+02	-2.027347e-01	0	0
445781	2.080000e+00	-9.678838e+01	-4.362209e+00	0	0
447734	2.080000e+00	-9.091728e+01	-1.512240e+01	0	0
449688	2.080000e+00	-7.105697e+01	-2.704820e+01	0	0
451641	2.080000e+00	-5.560162e+01	-3.377634e+01	0	0
453594	2.080000e+00	-6.194286e+01	-4.196690e+01	0	0
455547	2.080000e+00	-5.397162e+01	-4.663709e+01	0	0
457500	2.080000e+00	-6.789909e+01	-2.746675e+01	0	0
459453	2.080000e+00	-7.394726e+01	-1.404237e+01	0	0
461406	2.080000e+00	-8.063722e+01	-2.747335e-01	0	0
463359	2.080000e+00	-8.749170e+01	6.805245e+00	0	0
465313	2.080000e+00	-9.917384e+01	2.515131e+01	0	0
467266	2.080000e+00	-9.659002e+01	3.899329e+01	0	0
469219	2.080000e+00	-7.585418e+01	4.451680e+01	0	0
471172	2.080000e+00	-5.796720e+01	4.076749e+01	0	0
473125	2.080000e+00	-5.687011e+01	2.708190e+01	0	0
475078	2.080000e+00	-5.326350e+01	1.537762e+01	0	0
477031	2.080000e+00	-3.826945e+01	1.260957e+01	0	0
478984	2.080000e+00	-3.747171e+01	-2.541987e+00	0	0
480938	2.080000e+00	-5.489138e+01	-1.253908e+01	0	0
482891	2.080000e+00	-7.664358e+01	-1.756189e+01	0	0
484844	2.080000e+00	-9.872738e+01	-1.619680e+01	0	0
486797	2.080000e+00	-9.617338e+01	-1.254973e+01	0	0
488750	2.080000e+00	-8.881046e+01	-8.610770e+00	0	0
490703	2.080000e+00	-6.571379e+01	-2.407371e+00	0	0
492656	2.080000e+00	-5.141034e+01	1.630062e+00	0	0
494609	2.080000e+00	-4.004065e+01	4.341284e-01	0	0
496563	2.080000e+00	-4.369468e+01	-2.190565e+00	0	0
498516	2.080000e+00	-6.972179e+01	-4.277952e+00	0	0
500469	2.080000e+00	-6.888184e+01	-3.893284e+00	0	0
502422	2.080000e+00	-7.776230e+01	-1.231781e+00	0	0
504375	2.080000e+00	-8.108222e+01	1.116957e+00	0	0
506328	2.080000e+00	-7.713942e+01	3.277472e+00	0	0
508281	2.080000e+00	-6.914802e+01	4.520177e+00	0	0
510234	2.080000e+00	-6.769755e+01	4.672195e+00	0	0
512188	2.080000e+00	-8.600396e+01	3.797910e+00	0	0
514141	2.080000e+00	-1.067467e+02	1.843406e+00	0	0
516094	2.080000e+00	-9.467130e+01	-1.628533e+00	0	0
518047	2.080000e+00	-9.862172e+01	-3.830187e+00	0	0
520000	2.080000e+00	-9.119857e+01	-1.436462e+00	0	0
521953	2.080000e+00	-6.748276e+01	-3.819929e+00	0	0
523906	2.080000e+00	-4.191502e+01	-1.216325e+01	0	0
525859	2.080000e+00	-2.956841e+01	-1.589764e+01	0	0
527813	2.080000e+00	-3.393039e+01	-1.537281e+01	0	0
529766	2.080000e+00	-4.024036e+01	-1.086516e+01	0	0
531719	2.080000e+00	-3.071847e+01	-4.164499e+00	0	0
533672	2.080000e+00	-1.311578e+01	-2.053877e+00	0	0
535625	2.080000e+00	-4.047444e+00	4.109343e-02	0	0
537578	2.080000e+00	2.476333e+01	9.150748e+00	0	0
539531	2.080000e+00	3.424592e+01	1.264989e+01	0	0
541484	2.080000e+00	3.227581e+01	1.263232e+01	0	0
543438	2.080000e+00	4.761931e+01	8.388894e+00	0	0
545391	2.080000e+00	4.594760e+01	-2.954283e-01	0	0
547344	2.080000e+00	7.460196e+01	-5.213141e+00	0	0
549297	2.080000e+00	9.029080e+01	-6.723851e+00	0	0
551250	2.080000e+00	1.061165e+02	-1.568904e+01	0	0
553203	2.080000e+00	9.643006e+01	-2.185224e+01	0	0
555156	2.080000e+00	8.157013e+01	-2.443244e+01	0	0
557109	2.080000e+00	6.902338e+01	-2.351388e+01	0	0
559063	2.080000e+00	6.611977e+01	-1.980202e+01	0	0
561016	2.080000e+00	5.845317e+01	-1.285456e+01	0	0
562969	2.080000e+00	5.378333e+01	-6.438267e+00	0	0
564922	2.080000e+00	8.463430e+01	-6.108981e+00	0	0
566875	2.080000e+00	8.852174e+01	-1.851225e+00	0	0
568828	2.080000e+00	1.034889e+02	5.841989e+00	0	0
570781	2.080000e+00	1.164703e+02	9.565226e+00	0	0
572734	2.080000e+00	1.230545e+02	9.642167e+00	0	0
574688	2.080000e+00	8.481830e+01	6.676273e+00	0	0
576641	2.080000e+00	9.343404e+01	1.625051e+00	0	0
578594	2.080000e+00	9.764617e+01	-3.976809e+00	0	0
580547	2.080000e+00	9.087181e+01	-5.719534e+00	0	0
582500	2.080000e+00	1.052413e+02	-6.552777e+00	0	0
584453	2.080000e+00	9.877949e+01	-1.183709e+01	0	0
586406	2.080000e+00	1.015402e+02	-1.609029e+01	0	0
588359	2.080000e+00	8.895639e+01	-1.526326e+01	0	0
590313	2.080000e+00	9.200349e+01	-1.004026e+01	0	0
592266	2.080000e+00	8.827150e+01	-4.373891e+00	0	0
594219	2.080000e+00	7.422877e+01	-4.793268e+00	0	0
596172	2.079713e+00	5.757170e+01	-2.936201e+00	0	0
598125	2.079000e+00	2.123079e+01	1.727716e+00	0	0
600078	2.079000e+00	6.503274e-01	4.317486e+00	0	0
602031	2.079000e+00	-1.520327e+01	2.763798e+00	0	0
603984	2.079287e+00	-2.272079e+01	-1.030486e+00	0	0
605938	2.079713e+00	-3.551971e+01	-1.600841e+00	0	0
607891	2.079000e+00	-4.675156e+01	-1.523672e+00	0	0
609844	2.079000e+00	-6.486102e+01	-2.915138e+00	0	0
611797	2.079000e+00	-6.542820e+01	-5.742465e+00	0	0
613750	2.079000e+00	-6.890813e+01	-5.898796e+00	0	0
615703	2.079000e+00	-3.725377e+01	-3.936931e+00	0	0
617656	2.079000e+00	-5.015657e+01	3.962738e-01	0	0
619609	2.079000e+00	-6.757294e+01	4.083403e+00	0	0
621563	2.079288e+00	-8.816805e+01	3.028912e+00	0	0
623516	2.079712e+00	-1.101457e+02	4.182043e+00	0	0
625469	2.079000e+00	-1.188260e+02	9.769955e+00	0	0
627422	2.079000e+00	-1.130069e+02	1.369066e+01	0	0
629375	2.079000e+00	-1.037314e+02	1.467246e+01	0	0
631328	2.079000e+00	-1.132153e+02	1.124324e+01	0	0
633281	2.079000e+00	-1.014014e+02	4.947516e+00	0	0
635234	2.079000e+00	-1.161414e+02	1.308420e+00	0	0
637188	2.079000e+00	-1.057498e+02	-1.196758e+00	0	0
639141	2.079000e+00	-9.830103e+01	-9.024037e+00	0	0
641094	2.079000e+00	-1.142812e+02	-1.627446e+01	0	0
643047	2.079000e+00	-1.324705e+02	-2.039215e+01	0	0
645000	2.079000e+00	-1.149938e+02	-2.064285e+01	0	0
646953	2.079000e+00	-1.301703e+02	-1.708046e+01	0	0
648906	2.079000e+00	-1.198691e+02	-1.030222e+01	0	0
650859	2.079000e+00	-1.205437e+02	-2.582917e+00	0	0
652813	2.079000e+00	-1.192169e+02	4.725711e-02	0	0
654766	2.079000e+00	-1.272682e+02	2.213687e+00	0	0
656719	2.079000e+00	-1.288885e+02	1.060150e+01	0	0
658672	2.079000e+00	-1.398353e+02	1.741800e+01	0	0
660625	2.079000e+00	-1.484566e+02	2.199179e+01	0	0
662578	2.079000e+00	-1.451378e+02	2.349745e+01	0	0
664531	2.079000e+00	-1.486534e+02	2.158314e+01	0	0
666484	2.079000e+00	-1.442060e+02	1.728475e+01	0	0
668438	2.079000e+00	-1.342979e+02	1.180929e+01	0	0
670391	2.079000e+00	-1.284940e+02	6.704005e+00	0	0
672344	2.079000e+00	-1.329252e+02	4.742385e+00	0	0
674297	2.079000e+00	-1.295707e+02	5.138352e+00	0	0
676250	2.079000e+00	-1.348778e+02	4.347358e+00	0	0
678203	2.079000e+00	-1.467486e+02	1.878670e-01	0	0
680156	2.079000e+00	-1.408463e+02	-5.045637e+00	0	0
682109	2.079000e+00	-1.393351e+02	-9.251514e+00	0	0
684063	2.079000e+00	-1.486845e+02	-1.222136e+01	0	0
686016	2.079000e+00	-1.513013e+02	-1.342542e+01	0	0
687969	2.079000e+00	-1.517193e+02	-1.298163e+01	0	0
689922	2.079000e+00	-1.696092e+02	-1.130119e+01	0	0
691875	2.079000e+00	-2.112152e+02	-8.484544e+00	0	0
693828	2.079000e+00	-2.171173e+02	-4.445285e+00	0	0
695781	2.079000e+00	-2.007526e+02	1.121140e+00	0	0
697734	2.079000e+00	-1.421259e+02	6.630284e+00	0	0
699688	2.079000e+00	-6.891055e+01	8.792150e+00	0	0
701641	2.079000e+00	1.315249e+01	9.925367e+00	0	0
703594	2.079000e+00	1.130582e+02	1.343422e+01	0	0
705547	2.079000e+00	2.701390e+02	1.952950e+01	0	0
707500	2.079000e+00	5.045329e+02	2.204519e+01	0	0
709453	2.079000e+00	7.874192e+02	2.140736e+01	0	0
711406	2.079000e+00	1.039656e+03	1.744414e+01	0	0
713359	2.079000e+00	1.314824e+03	1.180729e+01	0	0
715313	2.079000e+00	1.577113e+03	7.500173e+00	0	0
717266	2.079000e+00	1.792399e+03	4.269064e+00	0	0
719219	2.079000e+00	1.901639e+03	3.862420e+00	0	0
721172	2.079000e+00	1.815365e+03	3.231901e+00	0	0
723125	2.079000e+00	1.662480e+03	3.609666e-01	0	0
725078	2.079000e+00	1.337174e+03	-2.268648e+00	0	0
727031	2.079000e+00	1.022590e+03	-3.585471e+00	0	0
728984	2.079000e+00	8.367118e+02	-4.395834e+00	0	0
730938	2.079000e+00	6.374993e+02	-5.192793e+00	0	0
732891	2.079000e+00	4.505802e+02	-5.857820e+00	0	0
734844	2.079000e+00	1.120096e+02	-6.364059e+00	0	0
736797	2.079000e+00	-1.409070e+02	-6.659916e+00	0	0
738750	2.079000e+00	-2.335188e+02	-6.700907e+00	0	0
740703	2.079000e+00	-2.713626e+02	-6.462677e+00	0	0
742656	2.079000e+00	-2.778864e+02	-5.878088e+00	0	0
744609	2.079000e+00	-2.436000e+02	-5.160905e+00	0	0
746563	2.079000e+00	-2.278227e+02	-4.241851e+00	0	0
748516	2.079000e+00	-2.067584e+02	-2.623969e+00	0	0
750469	2.079000e+00	-1.411504e+02	-1.088463e+00	0	0
752422	2.079000e+00	-1.076034e+02	7.946619e-01	0	0
754375	2.079000e+00	-6.978563e+01	1.643787e+00	0	0
756328	2.079000e+00	-3.509932e+01	2.417122e+00	0	0
758281	2.078706e+00	-6.193473e+00	5.626089e+00	0	0
760234	2.078000e+00	-1.219846e+01	4.959765e+00	0	0
762188	2.078294e+00	-4.344285e+00	2.504808e+00	0	0
764141	2.078706e+00	-3.366514e+01	1.853372e+00	0	0
766094	2.078000e+00	-2.635622e+01	3.546754e+00	0	0
768047	2.078000e+00	-1.623304e+01	3.389087e+00	0	0
770000	2.078000e+00	-2.267666e+01	9.676861e-02	0	0
771953	2.078294e+00	-4.766249e+01	-1.299584e+00	0	0
773906	2.078706e+00	-8.021684e+01	-4.750290e-01	0	0
775859	2.078000e+00	-7.222037e+01	2.108434e+00	0	0
777813	2.078000e+00	-8.204195e+01	3.527218e+00	0	0
779766	2.078000e+00	-1.003911e+02	1.671609e+00	0	0
781719	2.078000e+00	-7.829129e+01	7.001704e-01	0	0
783672	2.078000e+00	-7.999345e+01	4.029562e+00	0	0
785625	2.078000e+00	-8.697563e+01	1.037540e+01	0	0
787578	2.078000e+00	-7.677339e+01	1.266882e+01	0	0
789531	2.078000e+00	-7.417531e+01	1.054557e+01	0	0
791484	2.078000e+00	-5.089519e+01	4.370900e+00	0	0
793438	2.078000e+00	-5.625159e+01	-1.099566e+00	0	0
795391	2.078000e+00	-6.451634e+01	-1.562609e+00	0	0
797344	2.078000e+00	-8.247353e+01	-6.599808e+00	0	0
799297	2.078000e+00	-9.600307e+01	-1.349512e+01	0	0
801250	2.078000e+00	-9.384243e+01	-1.723563e+01	0	0
803203	2.078000e+00	-8.772097e+01	-1.828463e+01	0	0
805156	2.078000e+00	-7.603919e+01	-1.578876e+01	0	0
807109	2.078000e+00	-6.726065e+01	-8.826238e+00	0	0
809063	2.078000e+00	-6.652250e+01	-1.526844e+00	0	0
811016	2.078000e+00	-7.741794e+01	-4.091843e-02	0	0
812969	2.078000e+00	-8.305468e+01	3.864479e+00	0	0
814922	2.078000e+00	-6.631598e+01	1.308015e+01	0	0
816875	2.078000e+00	-5.264472e+01	1.858819e+01	0	0
818828	2.078000e+00	-6.723935e+01	2.102543e+01	0	0
820781	2.078000e+00	-5.823072e+01	1.983190e+01	0	0
822734	2.078000e+00	-5.667692e+01	1.511563e+01	0	0
824688	2.078000e+00	-5.471901e+01	6.049321e+00	0	0
826641	2.078000e+00	-2.599020e+01	-1.513028e+00	0	0
828594	2.078000e+00	-1.570240e+01	-1.568076e+00	0	0
830547	2.078000e+00	-2.043097e+01	-6.346082e+00	0	0
832500	2.078000e+00	-2.828581e+01	-1.344204e+01	0	0
834453	2.078000e+00	-4.215045e+01	-1.728455e+01	0	0
836406	2.078000e+00	-3.436284e+01	-1.900861e+01	0	0
838359	2.078000e+00	-3.695300e+01	-1.844217e+01	0	0
840313	2.078000e+00	-3.581201e+01	-1.634453e+01	0	0
842266	2.078000e+00	-2.978964e+01	-1.257176e+01	0	0
844219	2.078000e+00	-1.905412e+01	-7.107528e+00	0	0
846172	2.078000e+00	-1.262173e+01	-4.601496e+00	0	0
848125	2.078000e+00	-7.469316e+00	-4.801308e+00	0	0
850078	2.078000e+00	1.443530e+01	-1.152565e+00	0	0
852031	2.078000e+00	2.122055e+01	4.509283e+00	0	0
853984	2.078000e+00	1.064400e+01	8.165041e+00	0	0
855938	2.078000e+00	3.669713e+00	9.982536e+00	0	0
857891	2.078000e+00	-3.159319e+01	8.956397e+00	0	0
859844	2.078000e+00	-4.670008e+01	6.458831e+00	0	0
861797	2.078000e+00	-2.514897e+00	1.681127e+00	0	0
863750	2.078000e+00	-7.833664e+00	-2.502137e+00	0	0
865703	2.078000e+00	2.290086e+01	-1.717306e+00	0	0
867656	2.078000e+00	2.128804e+01	-2.267407e+00	0	0
869609	2.078000e+00	-5.386763e-01	-5.057528e+00	0	0
871563	2.078000e+00	-7.919799e+00	-8.503771e+00	0	0
873516	2.078000e+00	-1.982068e+01	-9.999747e+00	0	0
875469	2.078000e+00	9.923901e+00	-9.102962e+00	0	0
877422	2.078000e+00	1.806752e+01	-5.539337e+00	0	0
879375	2.078000e+00	3.617058e+01	-8.443320e-01	0	0
881328	2.078000e+00	5.183562e+01	4.310538e-02	0	0
883281	2.078000e+00	5.999535e+01	-1.914062e-01	0	0
885234	2.078000e+00	6.607827e+01	6.176935e+00	0	0
887188	2.078000e+00	6.600891e+01	1.206634e+01	0	0
889141	2.078000e+00	5.900104e+01	1.250949e+01	0	0
891094	2.078000e+00	5.238000e+01	8.835723e+00	0	0
893047	2.078000e+00	5.650148e+01	1.951735e+00	0	0
895000	2.078000e+00	7.613974e+01	-2.326902e+00	0	0
896953	2.078000e+00	1.103377e+02	-3.798789e+00	0	0
898906	2.078000e+00	1.131475e+02	-1.078289e+01	0	0
900859	2.078000e+00	1.124735e+02	-1.732965e+01	0	0
902813	2.078000e+00	1.006724e+02	-2.108854e+01	0	0
904766	2.078000e+00	1.055976e+02	-2.180842e+01	0	0
906719	2.078000e+00	9.936706e+01	-1.828646e+01	0	0
908672	2.078000e+00	6.760508e+01	-1.042362e+01	0	0
910625	2.078000e+00	7.492411e+01	-2.902125e+00	0	0
912578	2.078000e+00	9.884988e+01	-2.906208e+00	0	0
914531	2.078000e+00	1.145282e+02	-3.461029e-02	0	0
916484	2.078000e+00	1.309342e+02	9.991242e+00	0	0
918438	2.078000e+00	1.378725e+02	1.481971e+01	0	0
920391	2.078000e+00	1.408130e+02	1.394894e+01	0	0
922344	2.078000e+00	1.619374e+02	7.119085e+00	0	0
924297	2.078000e+00	1.932898e+02	1.382957e+00	0	0
926250	2.077699e+00	1.891570e+02	3.642819e-01	0	0
928203	2.077000e+00	1.727737e+02	-7.685257e+00	0	0
930156	2.077301e+00	1.829331e+02	-1.286847e+01	0	0
932109	2.077699e+00	1.854323e+02	-1.036681e+01	0	0
934063	2.077302e+00	1.647850e+02	-1.816530e+00	0	0
936016	2.078000e+00	1.719662e+02	1.381197e+00	0	0
937969	2.077698e+00	1.993733e+02	-1.966963e+00	0	0
939922	2.077000e+00	2.017199e+02	-4.551803e+00	0	0
941875	2.077000e+00	2.385149e+02	-3.810696e+00	0	0
943828	2.077000e+00	2.630520e+02	-1.581998e+00	0	0
945781	2.077000e+00	2.898598e+02	-4.259457e-01	0	0
947734	2.077000e+00	3.210787e+02	-1.577811e+00	0	0
949688	2.077000e+00	3.593012e+02	1.651228e+00	0	0
951641	2.077000e+00	4.014601e+02	9.999887e+00	0	0
953594	2.077000e+00	4.005935e+02	3.408543e+00	0	0
955547	2.077000e+00	3.930870e+02	2.204018e+00	0	0
957500	2.077000e+00	4.040511e+02	1.323292e+01	0	0
959453	2.077000e+00	4.116073e+02	3.532409e+01	0	0
961406	2.077000e+00	4.029715e+02	5.671597e+01	0	0
963359	2.077000e+00	4.201254e+02	7.699840e+01	0	0
965313	2.077000e+00	4.354777e+02	1.012423e+02	0	0
967266	2.077000e+00	4.555261e+02	7.252958e+01	0	0
969219	2.077000e+00	4.837861e+02	4.624443e+00	0	0
971172	2.077000e+00	4.792168e+02	-7.881637e+01	0	0
973125	2.077000e+00	4.838945e+02	-1.584361e+02	0	0
975078	2.077000e+00	4.941510e+02	-1.763879e+02	0	0
977031	2.077000e+00	4.887637e+02	-1.189358e+02	0	0
978984	2.077000e+00	5.246934e+02	-3.326209e+01	0	0
980938	2.077000e+00	5.268909e+02	3.937303e+01	0	0
982891	2.077000e+00	5.242588e+02	8.453261e+01	0	0
984844	2.077000e+00	5.341472e+02	6.600966e+01	0	0
986797	2.077000e+00	5.386229e+02	3.607745e+01	0	0
988750	2.077000e+00	5.423432e+02	2.070090e+01	0	0
990703	2.077000e+00	5.256941e+02	-1.619672e+00	0	0
992656	2.077000e+00	4.974777e+02	-7.017479e+00	0	0
994609	2.077000e+00	4.423157e+02	-5.115180e+00	0	0
996563	2.077000e+00	4.041193e+02	5.941916e-01	0	0
998516	2.077000e+00	3.725660e+02	7.945415e+00	0	0
1000469	2.077000e+00	3.409006e+02	-4.339550e-01	0	0
1002422	2.077000e+00	3.101938e+02	-2.080211e+00	0	0
1004375	2.077000e+00	2.891389e+02	4.066708e-01	0	0
1006328	2.077000e+00	2.300286e+02	5.514122e-01	0	0
1008281	2.077000e+00	2.344949e+02	-1.249395e+00	0	0
1010234	2.077000e+00	2.333163e+02	-5.007660e+00	0	0
1012188	2.077000e+00	2.007891e+02	-9.766883e+00	0	0
1014141	2.077000e+00	1.856368e+02	-1.223678e+01	0	0
1016094	2.077000e+00	1.613101e+02	-1.152894e+01	0	0
1018047	2.077000e+00	1.447485e+02	-1.297222e+01	0	0
1020000	2.077000e+00	9.954361e+01	-1.776114e+01	0	0
1021953	2.077000e+00	6.123429e+01	-1.984931e+01	0	0
1023906	2.077000e+00	1.916156e+01	-1.971955e+01	0	0
1025859	2.077000e+00	-1.058415e+01	-1.687048e+01	0	0
1027813	2.077000e+00	-1.589392e+00	-1.234684e+01	0	0
1029766	2.077000e+00	4.286555e+00	-9.288040e+00	0	0
1031719	2.077000e+00	-1.900136e+00	-8.867898e+00	0	0
1033672	2.077000e+00	-2.555634e+01	-6.854022e+00	0	0
1035625	2.077000e+00	-5.352307e+01	-1.966879e+00	0	0
1037578	2.077000e+00	-5.487145e+01	1.865773e+00	0	0
1039531	2.077000e+00	-9.106222e+01	3.919461e+00	0	0
1041484	2.077000e+00	-1.046903e+02	4.131112e+00	0	0
1043438	2.077000e+00	-1.173931e+02	1.842332e+00	0	0
1045391	2.077000e+00	-1.338393e+02	-1.311202e+00	0	0
1047344	2.077000e+00	-1.179624e+02	-1.503906e+00	0	0
1049297	2.077000e+00	-1.137904e+02	-3.170145e-01	0	0
1051250	2.077000e+00	-1.103771e+02	5.758610e-02	0	0
1053203	2.077000e+00	-1.151707e+02	-1.988695e+00	0	0
1055156	2.077000e+00	-1.295716e+02	-3.219445e+00	0	0
1057109	2.077000e+00	-1.548855e+02	-3.695220e+00	0	0
1059063	2.077000e+00	-1.589730e+02	-3.336273e+00	0	0
1061016	2.077000e+00	-1.502022e+02	-2.360884e+00	0	0
1062969	2.077000e+00	-1.328100e+02	-1.130944e+00	0	0
1064922	2.077000e+00	-1.171589e+02	3.661140e-01	0	0
1066875	2.077000e+00	-1.039380e+02	1.630824e+00	0	0
1068828	2.077000e+00	-9.909175e+01	2.400757e+00	0	0
1070781	2.077000e+00	-1.168140e+02	2.617630e+00	0	0
1072734	2.077000e+00	-1.332527e+02	2.231423e+00	0	0
1074688	2.077000e+00	-1.421697e+02	1.784190e+00	0	0
1076641	2.077000e+00	-1.355493e+02	1.659011e+00	0	0
1078594	2.077000e+00	-1.420674e+02	1.884104e+00	0	0
1080547	2.077000e+00	-1.492795e+02	2.203795e+00	0	0
1082500	2.077000e+00	-1.662113e+02	2.104088e+00	0	0
1084453	2.076692e+00	-1.596088e+02	1.882271e+00	0	0
1086406	2.076308e+00	-1.457616e+02	1.928516e+00	0	0
1088359	2.077000e+00	-1.287206e+02	2.251571e+00	0	0
1090313	2.077000e+00	-1.202606e+02	2.236202e+00	0	0
1092266	2.077000e+00	-1.331552e+02	3.439837e+00	0	0
1094219	2.076692e+00	-1.473279e+02	7.783112e+00	0	0
1096172	2.076000e+00	-1.668714e+02	1.079942e+01	0	0
1098125	2.076308e+00	-1.719825e+02	1.084646e+01	0	0
1100078	2.076692e+00	-1.694839e+02	7.768970e+00	0	0
1102031	2.076309e+00	-1.708637e+02	3.736036e+00	0	0
1103984	2.077000e+00	-1.690271e+02	2.384445e+00	0	0
1105938	2.076691e+00	-1.604221e+02	1.810868e+00	0	0
1107891	2.076000e+00	-1.531442e+02	-8.363278e-01	0	0
1109844	2.076000e+00	-1.605998e+02	-4.975223e+00	0	0
1111797	2.076000e+00	-1.897249e+02	-5.654126e+00	0	0
1113750	2.076000e+00	-2.247943e+02	-2.948810e+00	0	0
1115703	2.076000e+00	-2.347821e+02	7.363074e-01	0	0
1117656	2.076000e+00	-2.367457e+02	1.706771e+00	0	0
1119609	2.076000e+00	-2.423106e+02	1.593631e+00	0	0
1121563	2.076000e+00	-2.303842e+02	1.631546e+00	0	0
1123516	2.076000e+00	-1.847200e+02	3.341490e+00	0	0
1125469	2.076000e+00	-1.520996e+02	6.939836e+00	0	0
1127422	2.076000e+00	-1.372252e+02	8.477197e+00	0	0
1129375	2.076000e+00	-1.273185e+02	8.113566e+00	0	0
1131328	2.076000e+00	-1.275242e+02	6.348229e+00	0	0
1133281	2.076000e+00	-1.339339e+02	2.932895e+00	0	0
1135234	2.076000e+00	-1.543154e+02	1.740644e-01	0	0
1137188	2.076000e+00	-1.531279e+02	5.357361e-01	0	0
1139141	2.076000e+00	-1.560664e+02	4.670365e-01	0	0
1141094	2.076000e+00	-1.520050e+02	-1.075341e+00	0	0
1143047	2.076000e+00	-1.625376e+02	-6.429888e+00	0	0
1145000	2.076000e+00	-1.694917e+02	-1.021453e+01	0	0
1146953	2.076000e+00	-1.689323e+02	-1.305935e+01	0	0
1148906	2.076000e+00	-1.478446e+02	-1.435573e+01	0	0
1150859	2.076000e+00	-1.454025e+02	-1.336452e+01	0	0
1152813	2.076000e+00	-1.519726e+02	-1.113902e+01	0	0
1154766	2.076000e+00	-1.590267e+02	-7.723114e+00	0	0
1156719	2.076000e+00	-1.565919e+02	-2.353026e+00	0	0
1158672	2.076000e+00	-1.538693e+02	3.095503e-01	0	0
1160625	2.076000e+00	-1.677554e+02	4.093298e-02	0	0
1162578	2.076000e+00	-1.598972e+02	7.478569e+00	0	0
1164531	2.076000e+00	-1.635727e+02	1.734043e+01	0	0
1166484	2.076000e+00	-1.487537e+02	2.224649e+01	0	0
1168438	2.076000e+00	-1.476778e+02	2.129182e+01	0	0
1170391	2.076000e+00	-1.443927e+02	1.506865e+01	0	0
1172344	2.076000e+00	-1.455471e+02	2.788127e+00	0	0
1174297	2.076000e+00	-1.667693e+02	-5.804455e+00	0	0
1176250	2.076000e+00	-1.566899e+02	-9.470157e+00	0	0
1178203	2.076000e+00	-1.722060e+02	-2.364660e+01	0	0
1180156	2.076000e+00	-1.974542e+02	-3.301171e+01	0	0
1182109	2.076000e+00	-1.971988e+02	-3.845552e+01	0	0
1184063	2.076000e+00	-1.870544e+02	-3.812942e+01	0	0
1186016	2.076000e+00	-1.752472e+02	-3.230524e+01	0	0
1187969	2.076000e+00	-1.570272e+02	-2.227148e+01	0	0
1189922	2.076000e+00	-1.270828e+02	-9.117744e+00	0	0
1191875	2.076000e+00	-1.237789e+02	-1.793340e+00	0	0
1193828	2.076000e+00	-1.323682e+02	2.371791e+00	0	0
1195781	2.076000e+00	-1.361352e+02	1.674826e+01	0	0
1197734	2.076000e+00	-1.467455e+02	2.460183e+01	0	0
1199688	2.076000e+00	-1.680305e+02	2.783690e+01	0	0
1201641	2.076000e+00	-1.885387e+02	2.592713e+01	0	0
1203594	2.076000e+00	-2.015157e+02	1.712724e+01	0	0
1205547	2.076000e+00	-1.783009e+02	7.600287e+00	0	0
1207500	2.076000e+00	-1.774198e+02	4.142233e+00	0	0
1209453	2.076000e+00	-1.786735e+02	-4.882082e+00	0	0
1211406	2.076000e+00	-1.554364e+02	-1.344328e+01	0	0
1213359	2.076000e+00	-1.556193e+02	-1.691105e+01	0	0
1215313	2.076000e+00	-1.465628e+02	-1.761770e+01	0	0
1217266	2.076000e+00	-1.334850e+02	-1.599055e+01	0	0
1219219	2.076000e+00	-1.402520e+02	-1.188528e+01	0	0
1221172	2.076000e+00	-1.482413e+02	-6.720392e+00	0	0
1223125	2.076000e+00	-1.646813e+02	-2.288198e+00	0	0
1225078	2.076000e+00	-1.621996e+02	-2.456436e+00	0	0
1227031	2.076000e+00	-1.727729e+02	-4.397369e+00	0	0
1228984	2.076000e+00	-1.746890e+02	-4.408565e+00	0	0
1230938	2.076000e+00	-1.519523e+02	-1.275529e+00	0	0
1232891	2.076000e+00	-1.645144e+02	7.283609e-01	0	0
1234844	2.076000e+00	-1.747762e+02	1.493843e+00	0	0
1236797	2.076000e+00	-1.802571e+02	1.390220e+00	0	0
1238750	2.076000e+00	-1.848800e+02	9.809428e-01	0	0
1240703	2.076000e+00	-1.841549e+02	-5.682823e-02	0	0
1242656	2.076000e+00	-1.688712e+02	-6.796008e-01	0	0
1244609	2.076000e+00	-1.700774e+02	1.773377e-03	0	0
1246563	2.076000e+00	-1.850351e+02	4.305497e-02	0	0
1248516	2.076000e+00	-1.850212e+02	1.556833e-01	0	0
1250469	2.076000e+00	-1.776884e+02	3.876087e-01	0	0
1252422	2.076000e+00	-1.820630e+02	-4.960944e-02	0	0
1254375	2.076000e+00	-1.730908e+02	-2.139906e+00	0	0
1256328	2.076000e+00	-1.781139e+02	-3.701258e+00	0	0
1258281	2.076000e+00	-1.671866e+02	-4.370013e+00	0	0
1260234	2.076000e+00	-1.694277e+02	-4.266210e+00	0	0
1262188	2.076000e+00	-1.896516e+02	-3.291527e+00	0	0
1264141	2.075684e+00	-1.720569e+02	-1.285341e+00	0	0
1266094	2.075000e+00	-1.617871e+02	8.528989e-01	0	0
1268047	2.075316e+00	-1.497442e+02	1.749128e+00	0	0
1270000	2.076000e+00	-1.329933e+02	1.849713e+00	0	0
1271953	2.076000e+00	-1.498315e+02	1.895633e+00	0	0
1273906	2.075684e+00	-1.758842e+02	2.000843e+00	0	0
1275859	2.075000e+00	-1.940978e+02	3.393860e+00	0	0
1277813	2.075000e+00	-2.041572e+02	5.488150e+00	0	0
1279766	2.075000e+00	-2.066383e+02	6.241204e+00	0	0
1281719	2.075000e+00	-2.165818e+02	5.876494e+00	0	0
1283672	2.075317e+00	-2.008727e+02	4.362115e+00	0	0
1285625	2.075683e+00	-1.978471e+02	1.736602e+00	0	0
1287578	2.075000e+00	-1.885865e+02	-4.572780e-01	0	0
1289531	2.075317e+00	-1.710079e+02	-5.033190e-01	0	0
1291484	2.075683e+00	-1.789976e+02	-5.304716e-01	0	0
1293438	2.075000e+00	-1.952353e+02	-5.178484e-01	0	0
1295391	2.075000e+00	-2.010280e+02	-5.402671e-01	0	0
1297344	2.075000e+00	-1.983507e+02	-4.631128e-01	0	0
1299297	2.075000e+00	-1.973333e+02	-1.267273e+00	0	0
1301250	2.075000e+00	-2.099883e+02	-3.442063e+00	0	0
1303203	2.075000e+00	-2.195961e+02	-4.619488e+00	0	0
1305156	2.075000e+00	-2.280888e+02	-5.332780e+00	0	0
1307109	2.075000e+00	-2.221225e+02	-5.821911e+00	0	0
1309063	2.075000e+00	-2.096435e+02	-5.539722e+00	0	0
1311016	2.075000e+00	-1.895824e+02	-4.724951e+00	0	0
1312969	2.075000e+00	-1.430958e+02	-3.290458e+00	0	0
1314922	2.075000e+00	-1.026505e+02	-1.998765e+00	0	0
1316875	2.075000e+00	-8.426519e+01	-1.637369e+00	0	0
1318828	2.075000e+00	-7.201554e+01	-9.111250e-01	0	0
1320781	2.075000e+00	-5.226555e+01	-2.071898e-01	0	0
1322734	2.075000e+00	-4.641973e+01	-9.981595e-02	0	0
1324688	2.075000e+00	-6.819243e+01	2.364345e-01	0	0
1326641	2.075000e+00	-8.408512e+01	1.445202e+00	0	0
1328594	2.075000e+00	-7.582323e+01	1.224416e+00	0	0
1330547	2.075000e+00	-6.180685e+01	2.811757e-01	0	0
1332500	2.075000e+00	-2.913187e+01	-4.190072e-02	0	0
1334453	2.075000e+00	-1.961742e+01	3.013901e-01	0	0
1336406	2.075000e+00	-3.748078e+01	1.513415e+00	0	0
1338359	2.075000e+00	-3.506476e+01	2.784444e+00	0	0
1340313	2.075000e+00	-3.378607e+01	3.881441e+00	0	0
1342266	2.075000e+00	-3.132120e+01	4.272506e+00	0	0
1344219	2.075000e+00	-1.530334e+01	4.489571e+00	0	0
1346172	2.075000e+00	-1.225850e+01	5.622206e+00	0	0
1348125	2.075000e+00	1.074060e+01	6.043013e+00	0	0
1350078	2.075000e+00	4.749617e+01	5.712289e+00	0	0
1352031	2.075000e+00	6.079200e+01	5.177189e+00	0	0
1353984	2.075000e+00	5.214255e+01	4.277019e+00	0	0
1355938	2.075000e+00	4.032645e+01	2.881341e+00	0	0
1357891	2.075000e+00	1.283906e+01	2.066293e+00	0	0
1359844	2.075000e+00	-1.537356e+01	2.238069e+00	0	0
1361797	2.075000e+00	-1.647320e+01	2.221268e+00	0	0
1363750	2.075000e+00	-9.597020e+00	2.302746e+00	0	0
1365703	2.075000e+00	7.441013e-01	1.371423e+00	0	0
1367656	2.075000e+00	1.091571e+01	-5.281020e-01	0	0
1369609	2.075000e+00	2.075379e+01	-2.147693e+00	0	0
1371563	2.075000e+00	-1.209015e+00	-3.824582e+00	0	0
1373516	2.075000e+00	-2.421405e+01	-5.858383e+00	0	0
1375469	2.075000e+00	-3.535573e+01	-7.672439e+00	0	0
1377422	2.075000e+00	-6.673390e+01	-1.030332e+01	0	0
1379375	2.075000e+00	-8.172757e+01	-1.347922e+01	0	0
1381328	2.075000e+00	-1.123063e+02	-1.483833e+01	0	0
1383281	2.075000e+00	-1.272401e+02	-1.429137e+01	0	0
1385234	2.075000e+00	-1.316666e+02	-1.231313e+01	0	0
1387188	2.075000e+00	-1.547473e+02	-1.079671e+01	0	0
1389141	2.075000e+00	-1.591931e+02	-9.208359e+00	0	0
1391094	2.075000e+00	-1.761235e+02	-7.001024e+00	0	0
1393047	2.075000e+00	-1.895277e+02	-4.518735e+00	0	0
1395000	2.075000e+00	-2.085925e+02	-1.798529e+00	0	0
1396953	2.075000e+00	-2.237035e+02	1.608263e-01	0	0
1398906	2.075000e+00	-2.209386e+02	2.276012e-01	0	0
1400859	2.075000e+00	-2.329284e+02	2.355872e-01	0	0
1402813	2.075000e+00	-2.449731e+02	2.849301e-01	0	0
1404766	2.075000e+00	-2.444888e+02	1.302238e+00	0	0
1406719	2.075000e+00	-2.471767e+02	3.232544e+00	0	0
1408672	2.075000e+00	-2.416037e+02	4.542342e+00	0	0
1410625	2.075000e+00	-2.350940e+02	5.670950e+00	0	0
1412578	2.075000e+00	-2.309238e+02	6.645076e+00	0	0
1414531	2.075000e+00	-2.385723e+02	7.634273e+00	0	0
1416484	2.075000e+00	-2.590177e+02	8.901271e+00	0	0
1418438	2.075000e+00	-2.729490e+02	1.013777e+01	0	0
1420391	2.075000e+00	-2.768693e+02	1.121042e+01	0	0
1422344	2.075000e+00	-2.849052e+02	1.206726e+01	0	0
1424297	2.075000e+00	-2.763864e+02	1.264447e+01	0	0
1426250	2.075000e+00	-2.611868e+02	1.288590e+01	0	0
1428203	2.075000e+00	-2.480321e+02	1.271410e+01	0	0
1430156	2.075000e+00	-2.200848e+02	1.200987e+01	0	0
1432109	2.075000e+00	-2.227712e+02	1.072809e+01	0	0
1434063	2.075000e+00	-2.423315e+02	8.944585e+00	0	0
1436016	2.075000e+00	-2.365747e+02	6.722960e+00	0	0
1437969	2.075000e+00	-2.353420e+02	4.335775e+00	0	0
1439922	2.075000e+00	-2.567718e+02	3.037966e+00	0	0
1441875	2.075000e+00	-2.630822e+02	2.904396e+00	0	0
1443828	2.075000e+00	-2.752028e+02	2.642834e+00	0	0
1445781	2.075000e+00	-2.712161e+02	1.840035e+00	0	0
1447734	2.075000e+00	-2.610943e+02	-3.841453e-01	0	0
1449688	2.075000e+00	-2.598640e+02	-2.546929e+00	0	0
1451641	2.075000e+00	-2.756042e+02	-4.155320e+00	0	0
1453594	2.075000e+00	-2.905747e+02	-4.865112e+00	0	0
1455547	2.075000e+00	-2.764627e+02	-4.957712e+00	0	0
1457500	2.075000e+00	-2.866888e+02	-4.579516e+00	0	0
1459453	2.075000e+00	-2.763137e+02	-3.836722e+00	0	0
1461406	2.075000e+00	-2.669498e+02	-2.763621e+00	0	0
1463359	2.075000e+00	-2.676133e+02	-1.432893e+00	0	0
1465313	2.075000e+00	-2.572253e+02	1.366843e-01	0	0
1467266	2.075000e+00	-2.551051e+02	8.817778e-01	0	0
1469219	2.075000e+00	-2.789840e+02	2.426142e-01	0	0
1471172	2.075000e+00	-3.106831e+02	-1.963077e-01	0	0
1473125	2.075000e+00	-3.274022e+02	-6.280543e-01	0	0
1475078	2.075000e+00	-3.280608e+02	-1.073583e+00	0	0
1477031	2.075000e+00	-3.194129e+02	-1.104748e+00	0	0
1478984	2.075000e+00	-2.887991e+02	-3.112486e-01	0	0
1480938	2.075000e+00	-2.166378e+02	2.303553e-01	0	0
1482891	2.075000e+00	-1.370228e+02	4.993997e-01	0	0
1484844	2.075000e+00	-3.169120e+01	4.113338e-01	0	0
1486797	2.075000e+00	8.997336e+01	-3.783099e-02	0	0
1488750	2.074675e+00	2.610061e+02	-9.342166e-01	0	0
1490703	2.074000e+00	5.029208e+02	-1.768484e+00	0	0
1492656	2.074000e+00	7.710001e+02	-1.811672e+00	0	0
1494609	2.074000e+00	1.016875e+03	-1.765022e+00	0	0
1496563	2.074000e+00	1.280752e+03	-1.703846e+00	0	0
1498516	2.074000e+00	1.518327e+03	-1.627481e+00	0	0
1500469	2.074000e+00	1.680563e+03	-1.541210e+00	0	0
1502422	2.074326e+00	1.646485e+03	-1.883343e+00	0	0
1504375	2.075000e+00	1.499330e+03	-2.590588e+00	0	0
1506328	2.074674e+00	1.241410e+03	-2.695798e+00	0	0
1508281	2.074000e+00	9.369944e+02	-2.428606e+00	0	0
1510234	2.074000e+00	7.326128e+02	-1.785641e+00	0	0
1512188	2.074000e+00	5.231266e+02	-9.294356e-01	0	0
1514141	2.074000e+00	3.790633e+02	-4.152259e-01	0	0
1516094	2.074000e+00	1.411507e+02	-1.890197e-01	0	0
1518047	2.074000e+00	-1.245586e+02	-1.856022e-02	0	0
1520000	2.074000e+00	-2.654353e+02	-1.744801e-01	0	0
1521953	2.074000e+00	-3.424359e+02	-3.052984e-01	0	0
1523906	2.074000e+00	-3.944856e+02	-4.457435e-01	0	0
1525859	2.074000e+00	-3.893166e+02	-5.832957e-01	0	0
1527813	2.074000e+00	-3.516473e+02	-7.215058e-01	0	0
1529766	2.074000e+00	-3.198398e+02	-8.578374e-01	0	0
1531719	2.074000e+00	-3.072098e+02	-9.974706e-01	0	0
1533672	2.074000e+00	-2.723301e+02	-1.121369e+00	0	0
1535625	2.074000e+00	-2.423405e+02	-1.299582e+00	0	0
1537578	2.074000e+00	-2.315808e+02	-1.252291e+00	0	0
1539531	2.074000e+00	-2.226640e+02	-9.556869e-01	0	0
1541484	2.074000e+00	-2.132799e+02	-9.582135e-01	0	0
1543438	2.074000e+00	-1.929169e+02	-6.973482e-01	0	0
1545391	2.074000e+00	-1.890582e+02	-4.282199e-01	0	0
1547344	2.074000e+00	-1.814287e+02	-1.601286e-01	0	0
1549297	2.074000e+00	-1.924906e+02	3.005173e-02	0	0
1551250	2.074000e+00	-2.038901e+02	3.276327e-01	0	0
1553203	2.074000e+00	-2.112719e+02	-1.969523e-02	0	0
1555156	2.074000e+00	-2.119720e+02	-1.750442e+00	0	0
1557109	2.074000e+00	-2.212688e+02	-3.314560e+00	0	0
1559063	2.074000e+00	-2.162448e+02	-4.807762e+00	0	0
1561016	2.074000e+00	-2.252633e+02	-5.991396e+00	0	0
1562969	2.074000e+00	-2.296603e+02	-6.749166e+00	0	0
1564922	2.074000e+00	-2.274117e+02	-6.816659e+00	0	0
1566875	2.074000e+00	-2.273369e+02	-5.793532e+00	0	0
1568828	2.074000e+00	-2.196047e+02	-3.628195e+00	0	0
1570781	2.074000e+00	-2.110023e+02	-9.081846e-01	0	0
1572734	2.074000e+00	-1.966852e+02	4.580103e-01	0	0
1574688	2.074000e+00	-1.955196e+02	2.644756e-01	0	0
1576641	2.074000e+00	-2.132358e+02	2.551518e-01	0	0
1578594	2.074000e+00	-2.181543e+02	4.751408e-01	0	0
1580547	2.074000e+00	-2.089407e+02	2.709518e+00	0	0
1582500	2.074000e+00	-2.230849e+02	6.274979e+00	0	0
1584453	2.074000e+00	-2.125562e+02	8.404652e+00	0	0
1586406	2.074000e+00	-2.063717e+02	9.144159e+00	0	0
1588359	2.074000e+00	-2.171537e+02	8.375818e+00	0	0
1590313	2.074000e+00	-2.051724e+02	6.409616e+00	0	0
1592266	2.074000e+00	-2.053783e+02	2.920050e+00	0	0
1594219	2.074000e+00	-2.186347e+02	-2.684689e-02	0	0
1596172	2.074000e+00	-2.151296e+02	-3.151196e-02	0	0
1598125	2.074000e+00	-2.201715e+02	-4.721325e-03	0	0
1600078	2.074000e+00	-2.075927e+02	-7.834326e-01	0	0
1602031	2.074000e+00	-2.086378e+02	-4.121905e+00	0	0
1603984	2.074000e+00	-2.073577e+02	-7.539143e+00	0	0
1605938	2.074000e+00	-2.064401e+02	-9.216188e+00	0	0
1607891	2.074000e+00	-2.021453e+02	-8.630959e+00	0	0
1609844	2.074000e+00	-1.898040e+02	-5.823541e+00	0	0
1611797	2.074000e+00	-1.858442e+02	-1.855806e+00	0	0
1613750	2.074000e+00	-1.818146e+02	1.183662e-01	0	0
1615703	2.074000e+00	-1.830061e+02	-4.035302e-01	0	0
1617656	2.074000e+00	-1.752058e+02	1.330746e-01	0	0
1619609	2.074000e+00	-1.715873e+02	2.966795e+00	0	0
1621563	2.074000e+00	-1.524541e+02	6.149812e+00	0	0
1623516	2.074000e+00	-1.431615e+02	7.328305e+00	0	0
1625469	2.074000e+00	-1.394120e+02	6.505743e+00	0	0
1627422	2.074000e+00	-1.396834e+02	3.127969e+00	0	0
1629375	2.074000e+00	-1.290230e+02	-4.351327e-01	0	0
1631328	2.074000e+00	-1.259207e+02	-1.056951e+00	0	0
1633281	2.074000e+00	-1.229172e+02	-7.436239e-01	0	0
1635234	2.074000e+00	-1.168689e+02	-2.030794e+00	0	0
1637188	2.074000e+00	-1.340894e+02	-5.931139e+00	0	0
1639141	2.074000e+00	-1.396783e+02	-7.470854e+00	0	0
1641094	2.074000e+00	-1.442508e+02	-7.124800e+00	0	0
1643047	2.074000e+00	-1.445249e+02	-4.282947e+00	0	0
1645000	2.074000e+00	-1.301690e+02	-1.110612e+00	0	0
1646953	2.074000e+00	-1.206823e+02	-8.849404e-01	0	0
1648906	2.074000e+00	-1.098848e+02	-1.095279e+00	0	0
1650859	2.074000e+00	-1.148995e+02	-3.965236e-01	0	0
1652813	2.074000e+00	-1.072336e+02	2.490922e+00	0	0
1654766	2.074000e+00	-1.048919e+02	4.504743e+00	0	0
1656719	2.074000e+00	-1.094754e+02	4.507848e+00	0	0
1658672	2.074000e+00	-1.120747e+02	2.591728e+00	0	0
1660625	2.074000e+00	-1.183188e+02	-9.158493e-02	0	0
1662578	2.074000e+00	-1.173356e+02	-1.120760e+00	0	0
1664531	2.074000e+00	-1.079204e+02	-1.093061e+00	0	0
1666484	2.074000e+00	-9.189106e+01	-1.078644e+00	0	0
1668438	2.074000e+00	-4.816154e+01	-2.475019e+00	0	0
1670391	2.073665e+00	-3.949878e+01	-5.979604e+00	0	0
1672344	2.073335e+00	-5.493016e+01	-7.349789e+00	0	0
1674297	2.074000e+00	-7.415264e+01	-7.010946e+00	0	0
1676250	2.073665e+00	-7.667675e+01	-5.526019e+00	0	0
1678203	2.073335e+00	-5.629838e+01	-3.278315e+00	0	0
1680156	2.074000e+00	-7.825152e+01	-1.570276e+00	0	0
1682109	2.074000e+00	-8.382542e+01	-1.715447e+00	0	0
1684063	2.074000e+00	-7.533215e+01	-1.425669e+00	0	0
1686016	2.074000e+00	-3.965943e+01	-1.143951e+00	0	0
1687969	2.073665e+00	-1.568770e+01	-7.452624e-01	0	0
1689922	2.073000e+00	2.724703e-01	-3.531902e-01	0	0
1691875	2.073000e+00	-7.961020e+00	3.554690e-01	0	0
1693828	2.073000e+00	-1.156932e+01	1.307141e+00	0	0
1695781	2.073335e+00	-1.999177e+01	1.645097e+00	0	0
1697734	2.073664e+00	-3.129649e+01	2.207342e+00	0	0
1699688	2.073000e+00	-1.700083e+01	3.100944e+00	0	0
1701641	2.073336e+00	1.447638e+00	4.090397e+00	0	0
1703594	2.073664e+00	1.670501e+01	5.596703e+00	0	0
1705547	2.073000e+00	4.224346e+01	7.176939e+00	0	0
1707500	2.073000e+00	7.823610e+01	5.176942e+00	0	0
1709453	2.073000e+00	8.535546e+01	1.867158e+00	0	0
1711406	2.073000e+00	9.978005e+01	-2.317267e+00	0	0
1713359	2.073000e+00	1.135742e+02	-1.272139e+01	0	0
1715313	2.073000e+00	1.189515e+02	-1.724953e+01	0	0
1717266	2.073000e+00	1.239726e+02	-1.270153e+01	0	0
1719219	2.073000e+00	1.260800e+02	-4.439769e+00	0	0
1721172	2.073000e+00	1.293491e+02	5.277777e-01	0	0
1723125	2.073000e+00	1.415482e+02	1.173246e+01	0	0
1725078	2.073000e+00	1.502726e+02	2.617601e+01	0	0
1727031	2.073000e+00	1.682182e+02	1.403478e+01	0	0
1728984	2.073000e+00	1.764871e+02	-1.824923e+01	0	0
1730938	2.073000e+00	1.823653e+02	-5.026649e+01	0	0
1732891	2.073000e+00	1.907569e+02	-8.431217e+01	0	0
1734844	2.073000e+00	2.015563e+02	-9.003218e+01	0	0
1736797	2.073000e+00	2.321471e+02	-5.816772e+01	0	0
1738750	2.073000e+00	2.584875e+02	-1.691351e+01	0	0
1740703	2.073000e+00	2.641372e+02	1.439704e+01	0	0
1742656	2.073000e+00	2.571078e+02	3.912654e+01	0	0
1744609	2.073000e+00	2.508174e+02	3.882846e+01	0	0
1746563	2.073000e+00	2.638895e+02	2.119274e+01	0	0
1748516	2.073000e+00	2.941626e+02	6.448258e+00	0	0
1750469	2.073000e+00	2.975327e+02	-1.048289e+01	0	0
1752422	2.073000e+00	3.077488e+02	-1.816139e+01	0	0
1754375	2.073000e+00	3.185262e+02	-1.069403e+01	0	0
1756328	2.073000e+00	3.294679e+02	2.284847e+00	0	0
1758281	2.073000e+00	3.380343e+02	1.291097e+00	0	0
1760234	2.073000e+00	3.451414e+02	-6.658315e-01	0	0
1762188	2.073000e+00	3.410389e+02	3.345762e+00	0	0
1764141	2.073000e+00	3.437755e+02	3.925671e+00	0	0
1766094	2.073000e+00	3.422390e+02	2.861254e+00	0	0
1768047	2.073000e+00	3.282630e+02	1.631896e+00	0	0
1770000	2.073000e+00	3.382581e+02	1.294079e+00	0	0
1771953	2.073000e+00	3.301901e+02	5.047977e-01	0	0
1773906	2.073000e+00	3.084274e+02	-2.372639e-01	0	0
1775859	2.073000e+00	2.811251e+02	-4.333889e-01	0	0
1777813	2.073000e+00	2.580270e+02	1.367927e+00	0	0
1779766	2.073000e+00	2.295612e+02	3.781576e+00	0	0
1781719	2.073000e+00	1.986795e+02	4.802238e+00	0	0
1783672	2.073000e+00	1.760940e+02	5.065164e+00	0	0
1785625	2.073000e+00	1.479320e+02	4.522469e+00	0	0
1787578	2.073000e+00	1.195872e+02	4.425344e+00	0	0
1789531	2.073000e+00	9.023539e+01	6.115932e+00	0	0
1791484	2.073000e+00	5.425480e+01	5.463596e+00	0	0
1793438	2.073000e+00	2.147575e+01	3.069013e+00	0	0
1795391	2.073000e+00	-1.275548e+01	2.309635e-01	0	0
1797344	2.073000e+00	-3.288085e+01	-7.488175e-01	0	0
1799297	2.073000e+00	-5.653808e+01	-8.673130e-01	0	0
1801250	2.073000e+00	-8.366947e+01	-1.957126e+00	0	0
1803203	2.073000e+00	-1.083975e+02	-6.082816e+00	0	0
1805156	2.073000e+00	-1.222595e+02	-1.062578e+01	0	0
1807109	2.073000e+00	-1.359204e+02	-1.258094e+01	0	0
1809063	2.073000e+00	-1.433234e+02	-1.202338e+01	0	0
1811016	2.073000e+00	-1.537543e+02	-8.658738e+00	0	0
1812969	2.073000e+00	-1.677022e+02	-3.863542e+00	0	0
1814922	2.073000e+00	-1.782926e+02	-1.789665e+00	0	0
1816875	2.073000e+00	-1.994042e+02	-2.053623e+00	0	0
1818828	2.073000e+00	-2.127611e+02	9.193719e-01	0	0
1820781	2.073000e+00	-2.179162e+02	7.093771e+00	0	0
1822734	2.073000e+00	-2.330646e+02	1.087254e+01	0	0
1824688	2.073000e+00	-2.482873e+02	1.264908e+01	0	0
1826641	2.073000e+00	-2.390472e+02	1.246037e+01	0	0
1828594	2.073000e+00	-2.345570e+02	1.080933e+01	0	0
1830547	2.073000e+00	-2.393372e+02	7.895528e+00	0	0
1832500	2.073000e+00	-2.476542e+02	3.655601e+00	0	0
1834453	2.073000e+00	-2.552748e+02	1.056828e+00	0	0
1836406	2.073000e+00	-2.622722e+02	2.320291e+00	0	0
1838359	2.073000e+00	-2.616394e+02	2.224755e+00	0	0
1840313	2.073000e+00	-2.653727e+02	-1.080103e+00	0	0
1842266	2.073000e+00	-2.671390e+02	-6.176556e+00	0	0
1844219	2.073000e+00	-2.691039e+02	-9.911045e+00	0	0
1846172	2.073000e+00	-2.765683e+02	-1.202930e+01	0	0
1848125	2.073000e+00	-2.839909e+02	-1.090913e+01	0	0
1850078	2.073000e+00	-2.819637e+02	-6.530381e+00	0	0
1852031	2.073000e+00	-2.796084e+02	-4.657286e-01	0	0
1853984	2.073000e+00	-2.939397e+02	2.921967e+00	0	0
1855938	2.073000e+00	-2.955523e+02	2.976122e+00	0	0
1857891	2.073000e+00	-3.016691e+02	7.169020e+00	0	0
1859844	2.073000e+00	-3.033904e+02	1.409048e+01	0	0
1861797	2.073000e+00	-3.059648e+02	1.733346e+01	0	0
1863750	2.073000e+00	-3.018181e+02	1.721031e+01	0	0
1865703	2.073000e+00	-2.972877e+02	1.342282e+01	0	0
1867656	2.073000e+00	-3.031505e+02	1.009844e+01	0	0
1869609	2.073000e+00	-2.944313e+02	8.967233e+00	0	0
1871563	2.073000e+00	-3.104525e+02	6.481723e+00	0	0
1873516	2.073000e+00	-3.147478e+02	3.536394e+00	0	0
1875469	2.073000e+00	-3.049962e+02	1.703502e+00	0	0
1877422	2.073000e+00	-3.090063e+02	1.976770e+00	0	0
1879375	2.073000e+00	-3.167312e+02	1.359587e+00	0	0
1881328	2.073000e+00	-3.176242e+02	-1.069948e+00	0	0
1883281	2.073000e+00	-3.169429e+02	-3.509948e+00	0	0
1885234	2.073000e+00	-3.207795e+02	-4.929034e+00	0	0
1887188	2.073000e+00	-3.098251e+02	-5.276374e+00	0	0
1889141	2.073000e+00	-3.026047e+02	-4.861682e+00	0	0
1891094	2.073000e+00	-3.060591e+02	-4.016193e+00	0	0
1893047	2.073000e+00	-3.141018e+02	-2.759821e+00	0	0
1895000	2.073000e+00	-3.189002e+02	-1.071999e+00	0	0
1896953	2.073000e+00	-3.183391e+02	8.447709e-01	0	0
1898906	2.073000e+00	-3.195310e+02	1.705830e+00	0	0
1900859	2.073000e+00	-3.239474e+02	1.339923e+00	0	0
1902813	2.073000e+00	-3.184181e+02	1.096615e+00	0	0
1904766	2.073000e+00	-3.128895e+02	9.212164e-01	0	0
1906719	2.073000e+00	-3.094332e+02	1.579134e+00	0	0
1908672	2.073000e+00	-3.040267e+02	2.759376e+00	0	0
1910625	2.073000e+00	-2.998797e+02	3.267331e+00	0	0
1912578	2.073000e+00	-2.958526e+02	3.260526e+00	0	0
1914531	2.072654e+00	-2.980653e+02	2.929796e+00	0	0
1916484	2.072346e+00	-2.968791e+02	2.473387e+00	0	0
1918438	2.073000e+00	-3.027304e+02	1.885671e+00	0	0
1920391	2.073000e+00	-2.979596e+02	1.188119e+00	0	0
1922344	2.073000e+00	-2.932421e+02	4.082910e-01	0	0
1924297	2.073000e+00	-2.889767e+02	-4.822604e-01	0	0
1926250	2.073000e+00	-2.857871e+02	-1.273598e+00	0	0
1928203	2.072653e+00	-2.869011e+02	-1.575760e+00	0	0
1930156	2.072347e+00	-2.902855e+02	-1.655113e+00	0	0
1932109	2.072653e+00	-2.807456e+02	-1.743116e+00	0	0
1934063	2.072348e+00	-2.867580e+02	-1.801440e+00	0	0
1936016	2.073000e+00	-2.850411e+02	-1.837491e+00	0	0
1937969	2.073000e+00	-2.798230e+02	-1.852801e+00	0	0
1939922	2.073000e+00	-2.980370e+02	-1.856126e+00	0	0
1941875	2.073000e+00	-2.957562e+02	-1.852209e+00	0	0
1943828	2.073000e+00	-3.026524e+02	-1.844456e+00	0	0
1945781	2.073000e+00	-3.011868e+02	-1.770890e+00	0	0
1947734	2.073000e+00	-2.923207e+02	-1.573652e+00	0	0
1949688	2.073000e+00	-2.820877e+02	-1.450999e+00	0	0
1951641	2.072651e+00	-2.768949e+02	-1.095205e+00	0	0
1953594	2.072349e+00	-2.756269e+02	-1.825615e+00	0	0
1955547	2.072651e+00	-2.673562e+02	-3.775902e+00	0	0
1957500	2.072000e+00	-2.715540e+02	-3.058623e+00	0	0
1959453	2.072000e+00	-2.791351e+02	-1.331552e+00	0	0
1961406	2.072000e+00	-2.825019e+02	-6.170481e-01	0	0
1963359	2.072000e+00	-2.848457e+02	-6.512054e-01	0	0
1965313	2.072000e+00	-2.753515e+02	-8.604022e-01	0	0
1967266	2.072000e+00	-2.673559e+02	1.803747e-01	0	0
1969219	2.072000e+00	-2.634265e+02	3.303591e+00	0	0
1971172	2.072000e+00	-2.599514e+02	4.347055e+00	0	0
1973125	2.072000e+00	-2.710052e+02	3.204565e+00	0	0
1975078	2.072000e+00	-2.909938e+02	6.272940e-01	0	0
1977031	2.072000e+00	-3.037495e+02	-8.106205e-01	0	0
1978984	2.072000e+00	-3.189118e+02	-5.670481e-01	0	0
1980938	2.072350e+00	-2.976655e+02	-7.042939e-01	0	0
1982891	2.072650e+00	-2.657883e+02	-6.706161e-01	0	0
1984844	2.072000e+00	-2.605078e+02	-1.359900e+00	0	0
1986797	2.072000e+00	-2.709928e+02	-3.568974e+00	0	0
1988750	2.072000e+00	-2.710221e+02	-5.311083e+00	0	0
1990703	2.072000e+00	-2.668223e+02	-6.077177e+00	0	0
1992656	2.072000e+00	-2.761800e+02	-5.780913e+00	0	0
1994609	2.072000e+00	-2.846444e+02	-4.850340e+00	0	0
1996563	2.072000e+00	-2.681878e+02	-3.658050e+00	0	0
1998516	2.072000e+00	-2.733674e+02	-2.243622e+00	0	0
2000469	2.072000e+00	-3.006968e+02	-1.492869e+00	0	0
2002422	2.072000e+00	-3.081145e+02	-1.694753e+00	0	0
2004375	2.072000e+00	-3.064146e+02	-1.729315e+00	0	0
2006328	2.072000e+00	-2.874539e+02	-1.802594e+00	0	0
2008281	2.072000e+00	-2.789384e+02	-1.864316e+00	0	0
2010234	2.072000e+00	-2.714814e+02	-1.908987e+00	0	0
2012188	2.072000e+00	-2.787791e+02	-2.008390e+00	0	0
2014141	2.072000e+00	-2.858247e+02	-1.849548e+00	0	0
2016094	2.072000e+00	-2.694425e+02	-1.017415e+00	0	0
2018047	2.072000e+00	-2.733929e+02	-4.505180e-01	0	0
2020000	2.072000e+00	-2.950587e+02	-1.124784e+00	0	0
2021953	2.072000e+00	-2.885482e+02	-2.057936e+00	0	0
2023906	2.072000e+00	-2.887373e+02	-2.062017e+00	0	0
2025859	2.072000e+00	-2.874084e+02	-2.074519e+00	0	0
2027813	2.072000e+00	-2.809731e+02	-2.073500e+00	0	0
2029766	2.072000e+00	-2.801701e+02	-2.079086e+00	0	0
2031719	2.072000e+00	-2.686644e+02	-2.086098e+00	0	0
2033672	2.072000e+00	-2.650028e+02	-2.095572e+00	0	0
2035625	2.072000e+00	-2.683243e+02	-2.108993e+00	0	0
2037578	2.072000e+00	-2.712013e+02	-2.118000e+00	0	0
2039531	2.072000e+00	-2.804183e+02	-2.055493e+00	0	0
2041484	2.072000e+00	-2.917896e+02	-1.900595e+00	0	0
2043438	2.072000e+00	-2.924950e+02	-1.715159e+00	0	0
2045391	2.072000e+00	-2.796044e+02	-1.491550e+00	0	0
2047344	2.072000e+00	-2.676763e+02	-1.235704e+00	0	0
2049297	2.072000e+00	-2.492983e+02	-9.504183e-01	0	0
2051250	2.072000e+00	-2.413549e+02	-6.375467e-01	0	0
2053203	2.072000e+00	-2.219034e+02	-3.058209e-01	0	0
2055156	2.072000e+00	-1.994266e+02	6.117266e-02	0	0
2057109	2.072000e+00	-1.998319e+02	2.918068e-01	0	0
2059063	2.072000e+00	-1.855458e+02	2.993906e-01	0	0
2061016	2.072000e+00	-1.713011e+02	2.444492e-01	0	0
2062969	2.072000e+00	-1.562067e+02	2.142590e-02	0	0
2064922	2.072000e+00	-1.467535e+02	-1.818003e-01	0	0
2066875	2.072000e+00	-1.450529e+02	-3.160331e-01	0	0
2068828	2.072000e+00	-1.371072e+02	-3.513798e-01	0	0
2070781	2.072000e+00	-1.342394e+02	-3.099134e-01	0	0
2072734	2.072000e+00	-1.430916e+02	-1.229928e-01	0	0
2074688	2.072000e+00	-1.306207e+02	3.016844e-01	0	0
2076641	2.072000e+00	-1.097663e+02	7.312783e-01	0	0
2078594	2.072000e+00	-8.840578e+01	7.579334e-01	0	0
2080547	2.072000e+00	-7.119377e+01	2.942293e-01	0	0
2082500	2.072000e+00	-6.537075e+01	-8.106702e-01	0	0
2084453	2.072000e+00	-6.025954e+01	-2.151048e+00	0	0
2086406	2.072000e+00	-7.641808e+01	-2.264717e+00	0	0
2088359	2.072000e+00	-7.085560e+01	-1.849810e+00	0	0
2090313	2.072000e+00	-3.742579e+01	-1.943073e+00	0	0
2092266	2.072000e+00	-9.938191e+00	-1.628503e+00	0	0
2094219	2.072000e+00	-1.661370e+01	-5.606241e-01	0	0
2096172	2.072000e+00	-2.695648e+01	1.670942e+00	0	0
2098125	2.072000e+00	-3.611618e+01	5.394830e+00	0	0
2100078	2.072000e+00	-5.331515e+01	6.300406e+00	0	0
2102031	2.072000e+00	-4.420458e+01	5.323059e+00	0	0
2103984	2.072000e+00	-4.894284e+01	5.110012e+00	0	0
2105938	2.072000e+00	-4.948210e+01	2.902183e+00	0	0
2107891	2.072000e+00	-3.167894e+01	1.749033e+00	0	0
2109844	2.072000e+00	-2.427506e+01	4.735156e+00	0	0
2111797	2.072000e+00	-4.322228e+01	-2.733960e+00	0	0
2113750	2.072000e+00	-7.376039e+01	-1.448390e+01	0	0
2115703	2.072000e+00	-1.023628e+02	-1.219050e+01	0	0
2117656	2.072000e+00	-1.352555e+02	3.678064e-01	0	0
2119609	2.072000e+00	-1.597370e+02	1.582668e+01	0	0
2121563	2.072000e+00	-1.805508e+02	2.985523e+01	0	0
2123516	2.072000e+00	-1.931993e+02	5.064575e+01	0	0
2125469	2.072000e+00	-1.976255e+02	6.799035e+01	0	0
2127422	2.072000e+00	-2.036857e+02	5.105403e+01	0	0
2129375	2.072000e+00	-2.052416e+02	-2.006039e+00	0	0
2131328	2.072000e+00	-2.201469e+02	-5.850421e+01	0	0
2133281	2.072000e+00	-2.361377e+02	-1.127487e+02	0	0
2135234	2.072000e+00	-2.479065e+02	-1.270191e+02	0	0
2137188	2.072000e+00	-2.833195e+02	-8.702022e+01	0	0
2139141	2.072000e+00	-3.109066e+02	-2.578581e+01	0	0
2141094	2.072000e+00	-3.038272e+02	2.927759e+01	0	0
2143047	2.072000e+00	-2.872185e+02	6.698022e+01	0	0
2145000	2.072000e+00	-2.600627e+02	5.636883e+01	0	0
2146953	2.072000e+00	-2.408432e+02	3.547293e+01	0	0
2148906	2.072000e+00	-2.443301e+02	1.911552e+01	0	0
2150859	2.072000e+00	-2.667742e+02	6.098570e-01	0	0
2152813	2.072000e+00	-2.795442e+02	-1.239255e+01	0	0
2154766	2.072000e+00	-2.808586e+02	-1.320224e+01	0	0
2156719	2.072000e+00	-2.845610e+02	-1.082378e+01	0	0
2158672	2.072000e+00	-2.878058e+02	-8.913760e+00	0	0
2160625	2.072000e+00	-2.961724e+02	-7.847247e+00	0	0
2162578	2.072000e+00	-3.010348e+02	-3.915651e+00	0	0
2164531	2.072000e+00	-2.880903e+02	3.607075e+00	0	0
2166484	2.072000e+00	-2.882626e+02	4.811766e+00	0	0
2168438	2.072000e+00	-2.956531e+02	1.709491e+00	0	0
2170391	2.072000e+00	-2.855451e+02	-2.541345e+00	0	0
2172344	2.072000e+00	-2.936043e+02	-2.639602e+00	0	0
2174297	2.072000e+00	-3.022327e+02	4.942162e-01	0	0
2176250	2.072000e+00	-3.006842e+02	2.044555e+00	0	0
2178203	2.072000e+00	-3.122126e+02	2.559510e+00	0	0
2180156	2.072000e+00	-3.192531e+02	1.872952e+00	0	0
2182109	2.072000e+00	-3.195493e+02	5.721241e-01	0	0
2184063	2.072000e+00	-3.181636e+02	1.499403e-01	0	0
2186016	2.072000e+00	-3.272371e+02	1.746629e+00	0	0
2187969	2.072000e+00	-3.214117e+02	2.516585e+00	0	0
2189922	2.072000e+00	-3.034551e+02	5.621472e-01	0	0
2191875	2.072000e+00	-2.992431e+02	-1.092621e+00	0	0
2193828	2.072000e+00	-3.006910e+02	-3.967191e+00	0	0
2195781	2.072000e+00	-2.990995e+02	-6.333279e+00	0	0
2197734	2.072000e+00	-2.796452e+02	-6.746898e+00	0	0
2199688	2.072000e+00	-2.739731e+02	-6.331678e+00	0	0
2201641	2.072000e+00	-2.966059e+02	-5.149698e+00	0	0
2203594	2.072000e+00	-3.094212e+02	-3.751270e+00	0	0
2205547	2.072000e+00	-2.869992e+02	-3.326175e+00	0	0
2207500	2.072000e+00	-2.816037e+02	-3.464613e+00	0	0
2209453	2.072000e+00	-2.937332e+02	-3.536216e+00	0	0
2211406	2.072000e+00	-3.411539e+02	-3.648864e+00	0	0
2213359	2.072000e+00	-3.798594e+02	-3.773031e+00	0	0
2215313	2.072000e+00	-3.864531e+02	-3.912864e+00	0	0
2217266	2.072000e+00	-3.652169e+02	-4.075321e+00	0	0
2219219	2.072000e+00	-3.161203e+02	-4.221833e+00	0	0
2221172	2.072000e+00	-2.427879e+02	-4.493710e+00	0	0
2223125	2.072000e+00	-1.484911e+02	-4.305363e+00	0	0
2225078	2.072000e+00	-3.787034e+01	-3.318646e+00	0	0
2227031	2.072000e+00	7.172969e+01	-3.273245e+00	0	0
2228984	2.072000e+00	2.470257e+02	-4.703149e+00	0	0
2230938	2.072000e+00	5.013880e+02	-6.059926e+00	0	0
2232891	2.072000e+00	7.794652e+02	-6.144367e+00	0	0
2234844	2.072000e+00	1.037834e+03	-6.115716e+00	0	0
2236797	2.072000e+00	1.305508e+03	-6.105473e+00	0	0
2238750	2.072000e+00	1.544541e+03	-6.024717e+00	0	0
2240703	2.072000e+00	1.725878e+03	-6.228507e+00	0	0
2242656	2.072000e+00	1.746420e+03	-6.695025e+00	0	0
2244609	2.072000e+00	1.590346e+03	-6.207190e+00	0	0
2246563	2.072000e+00	1.347255e+03	-5.543752e+00	0	0
2248516	2.072000e+00	1.036892e+03	-5.448066e+00	0	0
2250469	2.072000e+00	8.083971e+02	-5.244646e+00	0	0
2252422	2.072000e+00	5.702754e+02	-5.294886e+00	0	0
2254375	2.072000e+00	3.961675e+02	-5.554781e+00	0	0
2256328	2.072000e+00	1.371332e+02	-5.487515e+00	0	0
2258281	2.072000e+00	-1.618136e+02	-5.243341e+00	0	0
2260234	2.072000e+00	-2.892998e+02	-4.924514e+00	0	0
2262188	2.072000e+00	-3.488255e+02	-4.258262e+00	0	0
2264141	2.072000e+00	-3.660369e+02	-3.745472e+00	0	0
2266094	2.072000e+00	-3.700735e+02	-3.527735e+00	0	0
2268047	2.072000e+00	-3.517422e+02	-3.176442e+00	0	0
2270000	2.072000e+00	-3.264019e+02	-3.096987e+00	0	0
2271953	2.072000e+00	-2.975452e+02	-3.400804e+00	0	0
2273906	2.072000e+00	-2.649520e+02	-2.788346e+00	0	0
2275859	2.072000e+00	-2.418504e+02	-1.844601e+00	0	0
2277813	2.072000e+00	-2.307527e+02	-1.592778e+00	0	0
2279766	2.072000e+00	-2.367127e+02	-1.203000e+00	0	0
2281719	2.072000e+00	-2.299998e+02	-8.287980e-01	0	0
2283672	2.072000e+00	-2.271335e+02	-4.963107e-01	0	0
2285625	2.072000e+00	-2.265562e+02	7.834683e-02	0	0
2287578	2.071635e+00	-2.197997e+02	1.443641e+00	0	0
2289531	2.071000e+00	-2.116852e+02	2.614092e+00	0	0
2291484	2.071000e+00	-2.073470e+02	2.069460e+00	0	0
2293438	2.071000e+00	-2.093912e+02	8.870700e-01	0	0
2295391	2.071000e+00	-2.065564e+02	6.681339e-01	0	0
2297344	2.071366e+00	-2.048605e+02	6.011152e-01	0	0
2299297	2.071634e+00	-2.099566e+02	5.273036e-01	0	0
2301250	2.071366e+00	-2.152161e+02	4.622657e-01	0	0
2303203	2.072000e+00	-2.284175e+02	4.030769e-01	0	0
2305156	2.072000e+00	-2.331968e+02	3.472227e-01	0	0
2307109	2.071634e+00	-2.237490e+02	3.090413e-01	0	0
2309063	2.071000e+00	-2.243322e+02	2.256270e-01	0	0
2311016	2.071000e+00	-2.162435e+02	-1.133026e-01	0	0
2312969	2.071000e+00	-2.102600e+02	-4.288812e-01	0	0
2314922	2.071000e+00	-2.057667e+02	1.023526e-01	0	0
2316875	2.071000e+00	-2.130720e+02	9.155578e-01	0	0
2318828	2.071366e+00	-1.964099e+02	1.255705e+00	0	0
2320781	2.072000e+00	-1.842766e+02	1.495915e+00	0	0
2322734	2.072000e+00	-1.891958e+02	1.404187e+00	0	0
2324688	2.071633e+00	-1.741447e+02	1.412514e+00	0	0
2326641	2.071000e+00	-1.751073e+02	1.475004e+00	0	0
2328594	2.071000e+00	-1.831056e+02	1.607212e+00	0	0
2330547	2.071000e+00	-1.754404e+02	1.804635e+00	0	0
2332500	2.071000e+00	-1.850158e+02	2.071049e+00	0	0
2334453	2.071000e+00	-1.955859e+02	2.397152e+00	0	0
2336406	2.071000e+00	-2.001454e+02	2.817657e+00	0	0
2338359	2.071000e+00	-2.007933e+02	3.244399e+00	0	0
2340313	2.071368e+00	-1.960455e+02	3.367213e+00	0	0
2342266	2.071632e+00	-1.850006e+02	3.255373e+00	0	0
2344219	2.071000e+00	-1.669627e+02	3.132070e+00	0	0
2346172	2.071000e+00	-1.608920e+02	2.958677e+00	0	0
2348125	2.071000e+00	-1.641517e+02	2.750461e+00	0	0
2350078	2.071000e+00	-1.618416e+02	2.497486e+00	0	0
2352031	2.071000e+00	-1.489283e+02	2.244047e+00	0	0
2353984	2.071000e+00	-1.429708e+02	2.192637e+00	0	0
2355938	2.071000e+00	-1.414079e+02	2.549614e+00	0	0
2357891	2.071000e+00	-1.433320e+02	3.970635e+00	0	0
2359844	2.071000e+00	-1.593067e+02	5.575112e+00	0	0
2361797	2.071000e+00	-1.659442e+02	5.797836e+00	0	0
2363750	2.071000e+00	-1.663115e+02	5.631550e+00	0	0
2365703	2.071000e+00	-1.594717e+02	5.150236e+00	0	0
2367656	2.071000e+00	-1.451529e+02	4.098113e+00	0	0
2369609	2.071000e+00	-1.295087e+02	3.729415e+00	0	0
2371563	2.071000e+00	-1.193944e+02	5.529661e+00	0	0
2373516	2.071000e+00	-1.196206e+02	7.612359e+00	0	0
2375469	2.071000e+00	-1.168058e+02	8.371557e+00	0	0
2377422	2.071000e+00	-1.204755e+02	6.780020e+00	0	0
2379375	2.071000e+00	-1.322704e+02	3.290954e+00	0	0
2381328	2.071000e+00	-1.309900e+02	-9.815035e-03	0	0
2383281	2.071000e+00	-1.222906e+02	-1.616528e+00	0	0
2385234	2.071000e+00	-1.135755e+02	-3.513729e+00	0	0
2387188	2.071000e+00	-9.501971e+01	-7.483373e+00	0	0
2389141	2.071000e+00	-9.254610e+01	-1.316309e+01	0	0
2391094	2.071000e+00	-8.589720e+01	-1.600129e+01	0	0
2393047	2.071000e+00	-8.002131e+01	-1.640856e+01	0	0
2395000	2.071000e+00	-8.913160e+01	-1.413335e+01	0	0
2396953	2.071000e+00	-8.695497e+01	-9.019357e+00	0	0
2398906	2.071000e+00	-7.825094e+01	-4.518716e+00	0	0
2400859	2.071000e+00	-8.673083e+01	-3.113409e+00	0	0
2402813	2.071000e+00	-7.398170e+01	-1.104621e+00	0	0
2404766	2.071000e+00	-6.534427e+01	1.778503e+00	0	0
2406719	2.071000e+00	-5.981839e+01	5.288521e+00	0	0
2408672	2.071000e+00	-2.599622e+01	6.579976e+00	0	0
2410625	2.071000e+00	-1.818196e+01	6.114782e+00	0	0
2412578	2.071000e+00	-2.414173e+01	4.234086e+00	0	0
2414531	2.071000e+00	-1.921492e+01	3.796577e+00	0	0
2416484	2.071000e+00	-6.024327e+00	5.403585e+00	0	0
2418438	2.071000e+00	1.558980e+01	6.472964e+00	0	0
2420391	2.071000e+00	2.981511e+01	6.950476e+00	0	0
2422344	2.071000e+00	9.170524e+00	6.049557e+00	0	0
2424297	2.071000e+00	-2.257923e+00	5.374276e+00	0	0
2426250	2.071000e+00	1.019874e+01	5.675158e+00	0	0
2428203	2.071000e+00	3.111483e+01	4.960022e+00	0	0
2430156	2.071000e+00	4.147529e+01	4.070996e+00	0	0
2432109	2.071000e+00	4.757125e+01	3.156794e+00	0	0
2434063	2.071000e+00	5.809849e+01	2.196067e+00	0	0
2436016	2.071000e+00	6.695730e+01	1.334288e+00	0	0
2437969	2.071000e+00	8.077682e+01	1.001777e+00	0	0
2439922	2.071000e+00	8.263749e+01	1.047475e+00	0	0
2441875	2.071000e+00	9.211894e+01	1.029267e+00	0	0
2443828	2.071000e+00	1.075526e+02	1.028161e+00	0	0
2445781	2.071000e+00	1.198301e+02	1.022021e+00	0	0
2447734	2.071000e+00	1.401008e+02	1.018379e+00	0	0
2449688	2.071000e+00	1.523193e+02	1.009243e+00	0	0
2451641	2.071000e+00	1.615848e+02	1.019058e+00	0	0
2453594	2.071000e+00	1.719956e+02	9.425753e-01	0	0
2455547	2.071000e+00	1.830105e+02	4.641262e-01	0	0
2457500	2.071000e+00	1.870604e+02	-2.188657e-01	0	0
2459453	2.071000e+00	1.802209e+02	-6.985302e-01	0	0
2461406	2.071000e+00	2.154243e+02	-1.023157e+00	0	0
2463359	2.071000e+00	2.461230e+02	-1.170291e+00	0	0
2465313	2.071000e+00	2.680780e+02	-1.147059e+00	0	0
2467266	2.071000e+00	2.774571e+02	-9.653595e-01	0	0
2469219	2.071000e+00	2.767209e+02	-6.402160e-01	0	0
2471172	2.071000e+00	2.918886e+02	-1.978185e-01	0	0
2473125	2.071000e+00	3.155692e+02	4.234022e-01	0	0
2475078	2.071000e+00	3.413924e+02	9.056212e-01	0	0
2477031	2.071000e+00	3.503812e+02	9.321698e-01	0	0
2478984	2.071000e+00	3.449089e+02	9.261499e-01	0	0
2480938	2.071000e+00	3.473203e+02	9.196174e-01	0	0
2482891	2.071000e+00	3.653416e+02	9.131180e-01	0	0
2484844	2.071000e+00	3.839518e+02	9.065042e-01	0	0
2486797	2.071000e+00	4.036744e+02	8.998149e-01	0	0
2488750	2.071000e+00	4.210441e+02	8.930400e-01	0	0
2490703	2.071000e+00	4.392763e+02	8.861826e-01	0	0
2492656	2.071000e+00	4.415599e+02	8.792421e-01	0	0
2494609	2.071000e+00	4.428838e+02	8.722190e-01	0	0
2496563	2.071000e+00	4.394546e+02	8.651097e-01	0	0
2498516	2.071000e+00	4.506039e+02	8.579220e-01	0	0
2500469	2.071000e+00	4.598740e+02	8.506520e-01	0	0
2502422	2.071000e+00	4.625675e+02	8.433013e-01	0	0
2504375	2.071000e+00	4.650790e+02	8.358654e-01	0	0
2506328	2.071000e+00	4.609865e+02	8.283620e-01	0	0
2508281	2.071000e+00	4.521230e+02	8.207265e-01	0	0
2510234	2.071000e+00	4.571308e+02	8.132012e-01	0	0
2512188	2.071000e+00	4.483796e+02	8.047257e-01	0	0
2514141	2.071000e+00	4.116243e+02	7.924243e-01	0	0
2516094	2.071000e+00	3.831837e+02	7.778070e-01	0	0
2518047	2.071000e+00	3.415481e+02	7.637172e-01	0	0
2520000	2.071000e+00	3.057544e+02	7.498821e-01	0	0
2521953	2.071000e+00	2.729140e+02	7.355130e-01	0	0
2523906	2.071000e+00	2.473960e+02	7.240652e-01	0	0
2525859	2.071000e+00	2.279663e+02	7.025316e-01	0	0
2527813	2.071000e+00	2.050110e+02	7.195406e-01	0	0
2529766	2.071000e+00	1.736512e+02	5.935006e-01	0	0
2531719	2.071000e+00	1.434600e+02	1.069993e+00	0	0
2533672	2.071000e+00	1.141868e+02	2.255686e+00	0	0
2535625	2.071000e+00	8.163091e+01	2.185535e+00	0	0
2537578	2.071000e+00	6.277139e+01	1.167641e+00	0	0
2539531	2.071000e+00	5.333081e+01	5.378493e-01	0	0
2541484	2.071000e+00	3.344532e+01	6.356862e-01	0	0
2543438	2.071000e+00	-5.442825e+00	5.709090e-01	0	0
2545391	2.071000e+00	-3.351731e+01	6.626595e-01	0	0
2547344	2.071000e+00	-3.493991e+01	2.132374e-01	0	0
2549297	2.071000e+00	-4.986993e+01	-1.777453e+00	0	0
2551250	2.071000e+00	-8.156468e+01	-3.841679e+00	0	0
2553203	2.071000e+00	-9.887915e+01	-4.648836e+00	0	0
2555156	2.071000e+00	-1.084961e+02	-4.328628e+00	0	0
2557109	2.071000e+00	-1.108911e+02	-2.430082e+00	0	0
2559063	2.071000e+00	-1.039132e+02	-7.239893e-02	0	0
2561016	2.071000e+00	-1.034532e+02	5.658924e-01	0	0
2562969	2.071000e+00	-8.909991e+01	5.183933e-01	0	0
2564922	2.071000e+00	-7.889601e+01	3.266365e-01	0	0
2566875	2.071000e+00	-9.804134e+01	1.228127e+00	0	0
2568828	2.071000e+00	-1.135814e+02	4.110749e+00	0	0
2570781	2.071000e+00	-1.165571e+02	6.367348e+00	0	0
2572734	2.071000e+00	-1.269868e+02	7.686710e+00	0	0
2574688	2.071000e+00	-1.310297e+02	7.526429e+00	0	0
2576641	2.071000e+00	-1.331865e+02	6.083206e+00	0	0
2578594	2.071000e+00	-1.402777e+02	4.041887e+00	0	0
2580547	2.071000e+00	-1.462481e+02	2.504319e+00	0	0
2582500	2.071000e+00	-1.634765e+02	2.241366e+00	0	0
2584453	2.071000e+00	-1.600817e+02	2.409010e+00	0	0
2586406	2.071000e+00	-1.564140e+02	2.476342e+00	0	0
2588359	2.071000e+00	-1.472478e+02	2.528264e+00	0	0
2590313	2.071000e+00	-1.402223e+02	2.540978e+00	0	0
2592266	2.071000e+00	-1.384482e+02	2.494464e+00	0	0
2594219	2.071000e+00	-1.459255e+02	2.450752e+00	0	0
2596172	2.071000e+00	-1.541464e+02	1.173464e+00	0	0
2598125	2.071000e+00	-1.565937e+02	-1.364086e+00	0	0
2600078	2.071000e+00	-1.570476e+02	-3.049477e+00	0	0
2602031	2.071000e+00	-1.583855e+02	-4.130894e+00	0	0
2603984	2.071000e+00	-1.653865e+02	-4.426166e+00	0	0
2605938	2.071000e+00	-1.688671e+02	-3.649172e+00	0	0
2607891	2.071000e+00	-1.626122e+02	-1.192965e+00	0	0
2609844	2.071000e+00	-1.525602e+02	5.806215e-01	0	0
2611797	2.071000e+00	-1.430510e+02	1.568640e-01	0	0
2613750	2.071000e+00	-1.381920e+02	7.353910e-01	0	0
2615703	2.071000e+00	-1.326914e+02	3.170589e+00	0	0
2617656	2.071000e+00	-1.195940e+02	5.327232e+00	0	0
2619609	2.071000e+00	-1.489589e+02	5.137980e+00	0	0
2621563	2.071000e+00	-1.816050e+02	2.672247e+00	0	0
2623516	2.071000e+00	-1.939412e+02	2.600032e-01	0	0
2625469	2.071000e+00	-1.943440e+02	2.739859e-01	0	0
2627422	2.071000e+00	-1.770973e+02	4.405764e-01	0	0
2629375	2.071000e+00	-1.532593e+02	-4.852745e-01	0	0
2631328	2.071000e+00	-1.415888e+02	-3.251302e+00	0	0
2633281	2.071000e+00	-1.238002e+02	-4.694020e+00	0	0
2635234	2.071000e+00	-1.095566e+02	-5.220772e+00	0	0
2637188	2.071000e+00	-1.200081e+02	-5.709971e+00	0	0
2639141	2.071000e+00	-1.528257e+02	-5.962725e+00	0	0
2641094	2.071000e+00	-1.720560e+02	-5.994051e+00	0	0
2643047	2.071000e+00	-1.823965e+02	-5.748342e+00	0	0
2645000	2.071000e+00	-1.941664e+02	-5.224503e+00	0	0
2646953	2.071000e+00	-1.886444e+02	-4.247135e+00	0	0
2648906	2.071000e+00	-1.737743e+02	-3.019295e+00	0	0
2650859	2.071000e+00	-1.548163e+02	-1.893336e+00	0	0
2652813	2.071000e+00	-1.375345e+02	-4.308694e-01	0	0
2654766	2.071000e+00	-1.273901e+02	3.906387e-01	0	0
2656719	2.071000e+00	-1.306802e+02	2.540333e-01	0	0
2658672	2.071000e+00	-1.551336e+02	2.843147e-01	0	0
2660625	2.071000e+00	-1.756653e+02	2.995667e-01	0	0
2662578	2.071000e+00	-1.754374e+02	2.128840e-01	0	0
2664531	2.071000e+00	-1.694845e+02	8.365916e-01	0	0
2666484	2.071000e+00	-1.631069e+02	2.436367e+00	0	0
2668438	2.071000e+00	-1.553056e+02	3.619814e+00	0	0
2670391	2.071000e+00	-1.598450e+02	4.583508e+00	0	0
2672344	2.071000e+00	-1.650265e+02	5.194531e+00	0	0
2674297	2.071000e+00	-1.525852e+02	5.549227e+00	0	0
2676250	2.071000e+00	-1.340388e+02	5.781131e+00	0	0
2678203	2.071000e+00	-1.196613e+02	5.911136e+00	0	0
2680156	2.071000e+00	-1.388945e+02	5.969791e+00	0	0
2682109	2.071000e+00	-1.505913e+02	5.986755e+00	0	0
2684063	2.071000e+00	-1.503527e+02	5.857732e+00	0	0
2686016	2.071000e+00	-1.333299e+02	5.594232e+00	0	0
2687969	2.071000e+00	-1.194921e+02	5.059892e+00	0	0
2689922	2.071000e+00	-1.153279e+02	4.026326e+00	0	0
2691875	2.071000e+00	-1.148561e+02	2.192511e+00	0	0
2693828	2.071000e+00	-1.280722e+02	8.968524e-01	0	0
2695781	2.071000e+00	-1.331379e+02	1.073426e+00	0	0
2697734	2.071000e+00	-1.436082e+02	1.082001e+00	0	0
2699688	2.071000e+00	-1.549462e+02	1.105503e+00	0	0
2701641	2.071000e+00	-1.638385e+02	1.054940e-01	0	0
2703594	2.071000e+00	-1.605983e+02	-1.860484e+00	0	0
2705547	2.071000e+00	-1.442630e+02	-3.223768e+00	0	0
2707500	2.071000e+00	-1.278683e+02	-4.129513e+00	0	0
2709453	2.071000e+00	-1.168861e+02	-4.510173e+00	0	0
2711406	2.071000e+00	-1.134045e+02	-4.401351e+00	0	0
2713359	2.071000e+00	-1.118459e+02	-3.825836e+00	0	0
2715313	2.071000e+00	-1.176814e+02	-2.851932e+00	0	0
2717266	2.071000e+00	-1.331845e+02	-1.438337e+00	0	0
2719219	2.071000e+00	-1.485054e+02	4.740372e-03	0	0
2721172	2.071000e+00	-1.477797e+02	4.560435e-01	0	0
2723125	2.071000e+00	-1.346063e+02	-8.952684e-04	0	0
2725078	2.071000e+00	-1.238949e+02	-3.236665e-01	0	0
2727031	2.071000e+00	-1.188353e+02	8.244325e-02	0	0
2728984	2.071000e+00	-1.250328e+02	1.388312e+00	0	0
2730938	2.071000e+00	-1.290872e+02	3.147821e+00	0	0
2732891	2.071000e+00	-1.367692e+02	3.978798e+00	0	0
2734844	2.071000e+00	-1.550430e+02	6.227194e+00	0	0
2736797	2.071000e+00	-1.504024e+02	9.755766e+00	0	0
2738750	2.071000e+00	-1.488372e+02	9.789327e+00	0	0
2740703	2.071000e+00	-1.638385e+02	7.160477e+00	0	0
2742656	2.071000e+00	-1.593953e+02	3.122490e+00	0	0
2744609	2.071000e+00	-1.434994e+02	5.180774e-01	0	0
2746563	2.071000e+00	-1.396878e+02	-2.688630e-01	0	0
2748516	2.071000e+00	-1.422261e+02	-2.225154e-01	0	0
2750469	2.071000e+00	-1.281796e+02	-1.382910e+00	0	0
2752422	2.071000e+00	-1.210349e+02	-2.874841e+00	0	0
2754375	2.071000e+00	-1.284999e+02	-3.107139e+00	0	0
2756328	2.071000e+00	-1.345755e+02	-3.773384e+00	0	0
2758281	2.071000e+00	-1.444996e+02	-5.057307e+00	0	0
2760234	2.071000e+00	-1.403091e+02	-5.353326e+00	0	0
2762188	2.071000e+00	-1.468987e+02	-5.072163e+00	0	0
2764141	2.071000e+00	-1.602396e+02	-4.318010e+00	0	0
2766094	2.071000e+00	-1.743549e+02	-3.051688e+00	0	0
2768047	2.071000e+00	-1.765372e+02	-2.366638e+00	0	0
2770000	2.071000e+00	-1.612159e+02	-2.873402e+00	0	0
2771953	2.071000e+00	-1.623884e+02	-3.112399e+00	0	0
2773906	2.071000e+00	-1.549713e+02	-3.440865e+00	0	0
2775859	2.071000e+00	-1.449234e+02	-3.463368e+00	0	0
2777813	2.071000e+00	-1.395569e+02	-2.668023e+00	0	0
2779766	2.071000e+00	-1.512324e+02	-1.690241e+00	0	0
2781719	2.071000e+00	-1.687740e+02	-1.182057e+00	0	0
2783672	2.071000e+00	-1.737000e+02	-1.141037e+00	0	0
2785625	2.071000e+00	-1.627268e+02	-1.670983e+00	0	0
2787578	2.071000e+00	-1.314350e+02	-2.927777e+00	0	0
2789531	2.071000e+00	-1.010877e+02	-4.044574e+00	0	0
2791484	2.071000e+00	-9.762273e+01	-4.121052e+00	0	0
2793438	2.071000e+00	-7.238923e+01	-3.960132e+00	0	0
2795391	2.071000e+00	-4.991704e+01	-3.815422e+00	0	0
2797344	2.071000e+00	-6.651319e+01	-3.532422e+00	0	0
2799297	2.071000e+00	-6.179645e+01	-3.670262e+00	0	0
2801250	2.071000e+00	-3.674616e+01	-4.942719e+00	0	0
2803203	2.071000e+00	-1.310976e+01	-6.098390e+00	0	0
2805156	2.071000e+00	-9.820808e+00	-6.003805e+00	0	0
2807109	2.071000e+00	-1.600292e+01	-5.074646e+00	0	0
2809063	2.071000e+00	-1.417274e+01	-3.694540e+00	0	0
2811016	2.071000e+00	6.239325e+00	-1.721039e+00	0	0
2812969	2.071000e+00	1.805955e+01	-3.650219e-01	0	0
2814922	2.071000e+00	2.846381e+01	1.514077e-01	0	0
2816875	2.071000e+00	4.687811e+01	7.039056e-01	0	0
2818828	2.071000e+00	3.933862e+01	7.025248e-01	0	0
2820781	2.071000e+00	3.598525e+01	1.329670e+00	0	0
2822734	2.071000e+00	4.520627e+01	2.956865e+00	0	0
2824688	2.071000e+00	4.718601e+01	4.185625e+00	0	0
2826641	2.071000e+00	3.594073e+01	5.018807e+00	0	0
2828594	2.071000e+00	4.885781e+01	5.289667e+00	0	0
2830547	2.071000e+00	8.019668e+01	4.966706e+00	0	0
2832500	2.071000e+00	1.027758e+02	3.793120e+00	0	0
2834453	2.071000e+00	1.030077e+02	2.853645e+00	0	0
2836406	2.071000e+00	8.772582e+01	4.120374e+00	0	0
2838359	2.071000e+00	8.284737e+01	4.712010e+00	0	0
2840313	2.071000e+00	8.665593e+01	4.113889e+00	0	0
2842266	2.071000e+00	8.592443e+01	3.557076e+00	0	0
2844219	2.071000e+00	8.027207e+01	2.316919e+00	0	0
2846172	2.071000e+00	8.435129e+01	-8.540973e-01	0	0
2848125	2.071000e+00	9.525854e+01	-7.675438e+00	0	0
2850078	2.071000e+00	9.997333e+01	-1.203352e+01	0	0
2852031	2.071000e+00	7.644725e+01	-1.385207e+01	0	0
2853984	2.071000e+00	4.347417e+01	-1.252128e+01	0	0
2855938	2.071000e+00	1.667242e+01	-7.660005e+00	0	0
2857891	2.071000e+00	4.081567e+00	4.087272e-01	0	0
2859844	2.071000e+00	-2.130610e+01	7.043897e+00	0	0
2861797	2.071000e+00	-4.251687e+01	7.540743e+00	0	0
2863750	2.071000e+00	-7.106160e+01	1.046446e+01	0	0
2865703	2.071000e+00	-1.056803e+02	1.994851e+01	0	0
2867656	2.071000e+00	-1.172766e+02	2.621944e+01	0	0
2869609	2.071000e+00	-1.097379e+02	2.744311e+01	0	0
2871563	2.071000e+00	-9.754914e+01	2.351751e+01	0	0
2873516	2.071000e+00	-1.083107e+02	1.611330e+01	0	0
2875469	2.071000e+00	-1.173776e+02	1.097334e+01	0	0
2877422	2.071000e+00	-1.393996e+02	7.798362e+00	0	0
2879375	2.071000e+00	-1.686507e+02	3.954597e+00	0	0
2881328	2.071000e+00	-1.930642e+02	1.283379e+00	0	0
2883281	2.071000e+00	-1.923910e+02	4.550700e-02	0	0
2885234	2.071000e+00	-1.903979e+02	-1.215261e+00	0	0
2887188	2.071000e+00	-1.895133e+02	-3.940481e+00	0	0
2889141	2.071000e+00	-1.890142e+02	-5.342834e+00	0	0
2891094	2.071000e+00	-2.069430e+02	-5.198111e+00	0	0
2893047	2.071000e+00	-2.235577e+02	-4.005482e+00	0	0
2895000	2.071000e+00	-2.236703e+02	-2.551787e+00	0	0
2896953	2.071000e+00	-2.074820e+02	-2.136626e+00	0	0
2898906	2.071000e+00	-2.008435e+02	-3.456320e+00	0	0
2900859	2.071000e+00	-1.823722e+02	-4.298065e+00	0	0
2902813	2.071000e+00	-1.698030e+02	-4.647073e+00	0	0
2904766	2.071000e+00	-1.981615e+02	-3.826410e+00	0	0
2906719	2.071000e+00	-2.202117e+02	-2.729502e+00	0	0
2908672	2.071000e+00	-2.100024e+02	-2.065479e+00	0	0
2910625	2.071000e+00	-2.067035e+02	-1.772512e+00	0	0
2912578	2.071000e+00	-2.122762e+02	-1.944690e+00	0	0
2914531	2.071000e+00	-2.172381e+02	-2.606107e+00	0	0
2916484	2.071000e+00	-2.298246e+02	-3.888173e+00	0	0
2918438	2.071000e+00	-2.499731e+02	-4.893489e+00	0	0
2920391	2.071000e+00	-2.451300e+02	-4.786975e+00	0	0
2922344	2.071000e+00	-2.194175e+02	-4.459067e+00	0	0
2924297	2.071000e+00	-1.895627e+02	-4.141313e+00	0	0
2926250	2.071000e+00	-1.749452e+02	-3.785470e+00	0	0
2928203	2.071000e+00	-1.643678e+02	-3.887422e+00	0	0
2930156	2.071000e+00	-1.741832e+02	-5.228480e+00	0	0
2932109	2.071000e+00	-2.040315e+02	-6.337245e+00	0	0
2934063	2.071000e+00	-2.193521e+02	-6.426449e+00	0	0
2936016	2.071000e+00	-2.129162e+02	-6.378516e+00	0	0
2937969	2.071000e+00	-2.022946e+02	-5.528947e+00	0	0
2939922	2.071000e+00	-2.178675e+02	-4.090611e+00	0	0
2941875	2.071000e+00	-2.319243e+02	-2.495252e+00	0	0
2943828	2.071000e+00	-2.274759e+02	-1.839237e+00	0	0
2945781	2.071000e+00	-2.154160e+02	-1.979492e+00	0	0
2947734	2.071000e+00	-1.956874e+02	-2.082509e+00	0	0
2949688	2.071000e+00	-1.969486e+02	-2.325847e+00	0	0
2951641	2.071000e+00	-2.325666e+02	-1.839186e+00	0	0
2953594	2.071000e+00	-2.556490e+02	-5.275124e-01	0	0
2955547	2.071000e+00	-2.720736e+02	2.693708e-02	0	0
2957500	2.071000e+00	-2.645318e+02	4.867940e-02	0	0
2959453	2.071000e+00	-2.156903e+02	-3.714459e-01	0	0
2961406	2.071000e+00	-1.396278e+02	-8.988324e-01	0	0
2963359	2.071000e+00	-5.417140e+01	-1.249621e+00	0	0
2965313	2.071000e+00	4.891542e+01	-1.606200e+00	0	0
2967266	2.071000e+00	1.969544e+02	-1.821459e+00	0	0
2969219	2.071000e+00	4.347843e+02	-1.519022e+00	0	0
2971172	2.071000e+00	7.222026e+02	-1.175726e+00	0	0
2973125	2.071000e+00	9.751219e+02	-8.528894e-01	0	0
2975078	2.071000e+00	1.229312e+03	-5.485712e-01	0	0
2977031	2.071000e+00	1.513875e+03	-2.664440e-01	0	0
2978984	2.071000e+00	1.746711e+03	-9.786362e-03	0	0
2980938	2.071000e+00	1.867365e+03	2.222725e-01	0	0
2982891	2.071000e+00	1.846347e+03	4.136958e-01	0	0
2984844	2.071000e+00	1.731151e+03	6.110266e-01	0	0
2986797	2.071000e+00	1.443676e+03	6.067775e-01	0	0
2988750	2.071000e+00	1.121527e+03	3.750492e-01	0	0
2990703	2.071000e+00	9.047263e+02	2.721668e-01	0	0
2992656	2.071000e+00	6.702938e+02	2.086005e-01	0	0
2994609	2.071000e+00	4.393497e+02	2.043795e-01	0	0
2996563	2.071000e+00	6.740320e+01	2.571934e-01	0	0
2998516	2.071000e+00	-2.301790e+02	3.492475e-01	0	0
3000469	2.071000e+00	-3.144599e+02	5.498432e-01	0	0
3002422	2.071000e+00	-3.377116e+02	6.831343e-01	0	0
3004375	2.071000e+00	-3.055205e+02	6.037981e-01	0	0
3006328	2.071000e+00	-2.595319e+02	5.658315e-01	0	0
3008281	2.071000e+00	-2.249163e+02	5.175183e-01	0	0
3010234	2.071000e+00	-1.916041e+02	4.732659e-01	0	0
3012188	2.071000e+00	-1.694902e+02	4.297405e-01	0	0
3014141	2.071000e+00	-1.425832e+02	3.884290e-01	0	0
3016094	2.071000e+00	-1.102462e+02	3.494532e-01	0	0
3018047	2.071000e+00	-1.102707e+02	3.133945e-01	0	0
3020000	2.071000e+00	-1.165900e+02	2.803846e-01	0	0
3021953	2.071000e+00	-1.434383e+02	2.519166e-01	0	0
3023906	2.071000e+00	-1.378538e+02	2.244881e-01	0	0
3025859	2.071000e+00	-1.277397e+02	2.147311e-01	0	0
3027813	2.071000e+00	-1.212013e+02	2.159020e-01	0	0
3029766	2.071000e+00	-1.205746e+02	1.869420e-01	0	0
3031719	2.071000e+00	-1.390992e+02	1.432466e-01	0	0
3033672	2.071000e+00	-1.521813e+02	2.204328e-01	0	0
3035625	2.071000e+00	-1.669718e+02	4.381245e-01	0	0
3037578	2.071000e+00	-1.572734e+02	6.011979e-01	0	0
3039531	2.071000e+00	-1.571954e+02	6.259649e-01	0	0
3041484	2.071000e+00	-1.488522e+02	5.531247e-01	0	0
3043438	2.071000e+00	-1.221620e+02	4.950353e-01	0	0
3045391	2.071000e+00	-1.033729e+02	4.316363e-01	0	0
3047344	2.071000e+00	-1.127316e+02	3.628734e-01	0	0
3049297	2.071000e+00	-1.278671e+02	3.094929e-01	0	0
3051250	2.071000e+00	-1.314348e+02	1.776337e-01	0	0
3053203	2.071000e+00	-1.427840e+02	-9.213066e-02	0	0
3055156	2.071000e+00	-1.343869e+02	-2.495960e-01	0	0
3057109	2.071000e+00	-1.225781e+02	-2.124638e-01	0	0
3059063	2.071000e+00	-1.332964e+02	-1.204588e-01	0	0
3061016	2.071000e+00	-1.413668e+02	2.233668e-02	0	0
3062969	2.071000e+00	-1.385224e+02	2.359963e-01	0	0
3064922	2.071000e+00	-1.162547e+02	4.354820e-01	0	0
3066875	2.071000e+00	-9.868406e+01	6.358778e-01	0	0
3068828	2.071000e+00	-9.971216e+01	8.372334e-01	0	0
3070781	2.071000e+00	-7.924902e+01	9.193962e-01	0	0
3072734	2.071000e+00	-9.410178e+01	8.637814e-01	0	0
3074688	2.071000e+00	-1.177671e+02	8.222333e-01	0	0
3076641	2.071000e+00	-1.175894e+02	7.644673e-01	0	0
3078594	2.071000e+00	-1.258061e+02	6.968933e-01	0	0
3080547	2.071000e+00	-1.256133e+02	6.227027e-01	0	0
3082500	2.071000e+00	-1.184308e+02	5.212828e-01	0	0
3084453	2.071000e+00	-1.013132e+02	4.881142e-01	0	0
3086406	2.071000e+00	-8.810382e+01	8.214245e-01	0	0
3088359	2.071000e+00	-7.871055e+01	1.369417e+00	0	0
3090313	2.071000e+00	-6.553111e+01	1.801410e+00	0	0
3092266	2.071000e+00	-6.242317e+01	2.171133e+00	0	0
3094219	2.071000e+00	-7.147066e+01	2.453730e+00	0	0
3096172	2.071000e+00	-7.722816e+01	2.646720e+00	0	0
3098125	2.071000e+00	-7.566304e+01	2.736424e+00	0	0
3100078	2.071000e+00	-7.874415e+01	2.731335e+00	0	0
3102031	2.071000e+00	-8.941062e+01	2.552467e+00	0	0
3103984	2.071000e+00	-8.638358e+01	2.084865e+00	0	0
3105938	2.071000e+00	-6.810092e+01	1.112302e+00	0	0
3107891	2.071000e+00	-4.651073e+01	5.115818e-01	0	0
3109844	2.071000e+00	-4.373385e+01	1.057136e+00	0	0
3111797	2.071000e+00	-3.361283e+01	1.669831e+00	0	0
3113750	2.071000e+00	-1.799745e+01	2.704165e+00	0	0
3115703	2.071000e+00	-2.222168e+01	2.258434e+00	0	0
3117656	2.071000e+00	-1.269691e+01	-8.594722e-01	0	0
3119609	2.071000e+00	-2.249381e+01	-4.188107e+00	0	0
3121563	2.071000e+00	-3.218464e+01	-7.031118e+00	0	0
3123516	2.071000e+00	-1.241704e+01	-8.786573e+00	0	0
3125469	2.071000e+00	-2.324606e+01	-9.775165e+00	0	0
3127422	2.071000e+00	-9.061771e+00	-9.992234e+00	0	0
3129375	2.071000e+00	5.318659e+00	-1.011396e+01	0	0
3131328	2.071000e+00	-5.949613e-01	-9.602570e+00	0	0
3133281	2.071000e+00	8.426891e-01	-1.552040e+00	0	0
3135234	2.071000e+00	5.047235e+00	1.406372e+00	0	0
3137188	2.071000e+00	1.698972e+01	4.222097e-01	0	0
3139141	2.071000e+00	2.307520e+01	1.459236e+01	0	0
3141094	2.071000e+00	2.281604e+01	2.245362e+01	0	0
3143047	2.071000e+00	2.333321e+01	3.666801e+01	0	0
3145000	2.071000e+00	1.785969e+01	4.979841e+01	0	0
3146953	2.071000e+00	3.705604e+01	2.992392e+01	0	0
3148906	2.071000e+00	6.060703e+01	-8.195768e+00	0	0
3150859	2.071000e+00	5.816771e+01	-5.662084e+01	0	0
3152813	2.071000e+00	6.846624e+01	-1.017900e+02	0	0
3154766	2.071000e+00	6.434154e+01	-1.115854e+02	0	0
3156719	2.071000e+00	6.809249e+01	-7.719499e+01	0	0
3158672	2.071000e+00	6.497456e+01	-3.392192e+01	0	0
3160625	2.071000e+00	6.331685e+01	6.757887e+00	0	0
3162578	2.071000e+00	6.688084e+01	4.454076e+01	0	0
3164531	2.071000e+00	8.068390e+01	5.053014e+01	0	0
3166484	2.071000e+00	1.045786e+02	3.457905e+01	0	0
3168438	2.071000e+00	1.353668e+02	1.488670e+01	0	0
3170391	2.071000e+00	1.557273e+02	7.374845e-01	0	0
3172344	2.071000e+00	1.500866e+02	-9.481744e+00	0	0
3174297	2.071000e+00	1.387754e+02	-9.052852e+00	0	0
3176250	2.071000e+00	1.349454e+02	-1.266072e+00	0	0
3178203	2.071000e+00	1.332826e+02	5.330459e+00	0	0
3180156	2.071414e+00	1.489400e+02	7.252595e-02	0	0
3182109	2.071586e+00	1.565302e+02	-3.524760e+00	0	0
3184063	2.071000e+00	1.729573e+02	-2.904142e+00	0	0
3186016	2.071000e+00	1.957284e+02	-3.509168e+00	0	0
3187969	2.071000e+00	1.993659e+02	-3.333060e+00	0	0
3189922	2.071415e+00	2.302480e+02	-5.856444e-01	0	0
3191875	2.072000e+00	2.538455e+02	2.236126e+00	0	0
3193828	2.071585e+00	2.678239e+02	2.719156e+00	0	0
3195781	2.071415e+00	2.882789e+02	1.063802e+00	0	0
3197734	2.072000e+00	3.050262e+02	2.992119e-02	0	0
3199688	2.072000e+00	2.984823e+02	-8.625307e-01	0	0
3201641	2.072000e+00	2.898646e+02	-1.433388e+00	0	0
3203594	2.072000e+00	2.940324e+02	-1.135094e+00	0	0
3205547	2.072000e+00	3.137703e+02	1.068995e-01	0	0
3207500	2.071584e+00	3.433625e+02	1.234275e+00	0	0
3209453	2.071416e+00	3.614253e+02	1.378337e+00	0	0
3211406	2.072000e+00	3.743554e+02	6.924588e-01	0	0
3213359	2.072000e+00	3.814570e+02	1.471935e-01	0	0
3215313	2.072000e+00	3.796803e+02	-3.167021e-01	0	0
3217266	2.072000e+00	3.986535e+02	-6.541870e-01	0	0
3219219	2.072000e+00	4.111139e+02	-8.588449e-01	0	0
3221172	2.072000e+00	4.371995e+02	-9.043930e-01	0	0
3223125	2.072000e+00	4.698447e+02	-8.106066e-01	0	0
3225078	2.072000e+00	4.922942e+02	-6.750969e-01	0	0
3227031	2.072000e+00	5.087775e+02	-5.641125e-01	0	0
3228984	2.072000e+00	5.115774e+02	-4.099269e-01	0	0
3230938	2.072000e+00	5.235024e+02	-9.583953e-02	0	0
3232891	2.072000e+00	5.331338e+02	1.931207e-01	0	0
3234844	2.072000e+00	5.287777e+02	2.713795e-01	0	0
3236797	2.072000e+00	5.453945e+02	2.757388e-01	0	0
3238750	2.072000e+00	5.622137e+02	2.764481e-01	0	0
3240703	2.072000e+00	5.587306e+02	2.779915e-01	0	0
3242656	2.072000e+00	5.633608e+02	2.759851e-01	0	0
3244609	2.072000e+00	5.552308e+02	2.873051e-01	0	0
3246563	2.072000e+00	5.469166e+02	2.487941e-01	0	0
3248516	2.072000e+00	5.192509e+02	3.869383e-01	0	0
3250469	2.072000e+00	4.836264e+02	-5.938685e-01	0	0
3252422	2.072000e+00	4.560093e+02	-2.241003e+00	0	0
3254375	2.072000e+00	4.386981e+02	-1.296838e+00	0	0
3256328	2.072000e+00	4.091704e+02	-2.279177e-01	0	0
3258281	2.072000e+00	3.729571e+02	-6.012164e-01	0	0
3260234	2.072000e+00	3.563809e+02	-6.865156e-01	0	0
3262188	2.072000e+00	3.283650e+02	-8.775632e-01	0	0
3264141	2.072000e+00	2.948459e+02	-6.504404e-01	0	0
3266094	2.072000e+00	2.637548e+02	9.179407e-01	0	0
3268047	2.072000e+00	2.442137e+02	2.350084e+00	0	0
3270000	2.072000e+00	2.279342e+02	1.810877e+00	0	0
3271953	2.072000e+00	1.943766e+02	-5.291981e-02	0	0
3273906	2.072000e+00	1.617084e+02	-1.214982e+00	0	0
3275859	2.072000e+00	1.304886e+02	-1.036501e+00	0	0
3277813	2.072000e+00	9.193937e+01	-1.178835e+00	0	0
3279766	2.072000e+00	6.926885e+01	-1.030442e+00	0	0
3281719	2.072000e+00	3.918046e+01	-1.868270e+00	0	0
3283672	2.072000e+00	1.571483e+01	-3.453842e+00	0	0
3285625	2.072000e+00	2.502523e+01	-3.566523e+00	0	0
3287578	2.072000e+00	2.185466e+01	-3.232219e+00	0	0
3289531	2.072000e+00	5.153353e+00	-2.793791e+00	0	0
3291484	2.072000e+00	8.408844e+00	-2.199897e+00	0	0
3293438	2.072000e+00	-6.656531e+00	-1.612049e+00	0	0
3295391	2.072000e+00	-3.076997e+01	-8.401010e-01	0	0
3297344	2.072000e+00	-4.134814e+01	-2.787165e-01	0	0
3299297	2.072000e+00	-5.320485e+01	-1.951158e-01	0	0
3301250	2.072000e+00	-7.335842e+01	-2.906996e-02	0	0
3303203	2.072000e+00	-8.718083e+01	9.973209e-02	0	0
3305156	2.072000e+00	-9.376909e+01	2.186878e-01	0	0
3307109	2.072000e+00	-7.624597e+01	3.163135e-01	0	0
3309063	2.072000e+00	-4.977005e+01	3.940948e-01	0	0
3311016	2.072000e+00	-3.851853e+01	4.518313e-01	0	0
3312969	2.072000e+00	-3.076009e+01	4.894276e-01	0	0
3314922	2.072422e+00	-7.190597e+01	5.095779e-01	0	0
3316875	2.072578e+00	-9.798552e+01	5.010630e-01	0	0
3318828	2.072422e+00	-1.006588e+02	3.864931e-01	0	0
3320781	2.072578e+00	-9.923698e+01	2.901427e-01	0	0
3322734	2.072000e+00	-9.464675e+01	3.096790e-01	0	0
3324688	2.072423e+00	-9.607303e+01	3.020215e-01	0	0
3326641	2.072577e+00	-9.429703e+01	3.171500e-01	0	0
3328594	2.072423e+00	-8.125681e+01	2.971994e-01	0	0
3330547	2.073000e+00	-7.389776e+01	2.190105e-01	0	0
3332500	2.072577e+00	-7.552931e+01	1.605956e-01	0	0
3334453	2.072423e+00	-8.311004e+01	1.039646e-01	0	0
3336406	2.073000e+00	-8.494054e+01	6.213549e-02	0	0
3338359	2.073000e+00	-8.910694e+01	4.354035e-02	0	0
3340313	2.073000e+00	-9.467789e+01	3.675662e-02	0	0
3342266	2.073000e+00	-1.031926e+02	3.616542e-02	0	0
3344219	2.073000e+00	-1.140244e+02	4.257365e-02	0	0
3346172	2.073000e+00	-1.049042e+02	5.619502e-02	0	0
3348125	2.073000e+00	-9.093087e+01	7.617108e-02	0	0
3350078	2.073000e+00	-6.765422e+01	1.077239e-01	0	0
3352031	2.073000e+00	-4.680255e+01	1.317675e-01	0	0
3353984	2.073000e+00	-5.282610e+01	2.253415e-01	0	0
3355938	2.073000e+00	-7.164832e+01	2.905273e-01	0	0
3357891	2.073000e+00	-8.078804e+01	1.905303e-01	0	0
3359844	2.073000e+00	-9.516851e+01	9.170197e-02	0	0
3361797	2.073000e+00	-9.122712e+01	-6.168058e-03	0	0
3363750	2.073000e+00	-8.888880e+01	-1.004699e-01	0	0
3365703	2.073000e+00	-9.699157e+01	-1.916141e-01	0	0
3367656	2.073000e+00	-9.126274e+01	-2.791279e-01	0	0
3369609	2.073000e+00	-7.606606e+01	-3.630513e-01	0	0
3371563	2.073000e+00	-8.116670e+01	-4.422966e-01	0	0
3373516	2.073000e+00	-8.428366e+01	-5.198129e-01	0	0
3375469	2.073000e+00	-7.645410e+01	-5.834938e-01	0	0
3377422	2.073000e+00	-8.534755e+01	-6.949058e-01	0	0
3379375	2.073000e+00	-9.693279e+01	-8.828280e-01	0	0
3381328	2.073000e+00	-9.471950e+01	-1.082245e+00	0	0
3383281	2.073000e+00	-8.919114e+01	-1.309995e+00	0	0
3385234	2.073000e+00	-8.382770e+01	-1.559141e+00	0	0
3387188	2.073000e+00	-9.857421e+01	-1.828887e+00	0	0
3389141	2.073000e+00	-1.052046e+02	-2.116410e+00	0	0
3391094	2.073000e+00	-1.025971e+02	-2.419726e+00	0	0
3393047	2.073000e+00	-1.021071e+02	-2.736607e+00	0	0
3395000	2.073000e+00	-9.294001e+01	-3.064840e+00	0	0
3396953	2.073000e+00	-8.662472e+01	-3.402267e+00	0	0
3398906	2.073000e+00	-8.019688e+01	-3.746489e+00	0	0
3400859	2.073000e+00	-8.457415e+01	-4.096023e+00	0	0
3402813	2.073000e+00	-9.643705e+01	-4.445453e+00	0	0
3404766	2.073000e+00	-1.068212e+02	-4.781588e+00	0	0
3406719	2.073000e+00	-9.394179e+01	-5.100195e+00	0	0
3408672	2.073000e+00	-7.555651e+01	-5.395556e+00	0	0
3410625	2.073000e+00	-7.338633e+01	-5.687978e+00	0	0
3412578	2.073000e+00	-7.562728e+01	-5.883971e+00	0	0
3414531	2.073000e+00	-8.122395e+01	-5.915384e+00	0	0
3416484	2.073000e+00	-9.304883e+01	-5.865196e+00	0	0
3418438	2.073000e+00	-1.024869e+02	-5.876231e+00	0	0
3420391	2.073000e+00	-1.185983e+02	-5.057412e+00	0	0
3422344	2.073000e+00	-1.276091e+02	-3.760670e+00	0	0
3424297	2.073428e+00	-1.153911e+02	-3.871774e+00	0	0
3426250	2.074000e+00	-1.016016e+02	-4.831550e+00	0	0
3428203	2.073572e+00	-8.889222e+01	-5.250271e+00	0	0
3430156	2.073428e+00	-7.421779e+01	-4.957554e+00	0	0
3432109	2.074000e+00	-7.401800e+01	-4.839827e+00	0	0
3434063	2.074000e+00	-7.198941e+01	-4.503182e+00	0	0
3436016	2.074000e+00	-7.145654e+01	-5.570069e+00	0	0
3437969	2.074000e+00	-7.898929e+01	-7.696793e+00	0	0
3439922	2.074000e+00	-8.581554e+01	-8.182172e+00	0	0
3441875	2.074000e+00	-1.042365e+02	-7.585652e+00	0	0
3443828	2.074000e+00	-1.163884e+02	-5.233145e+00	0	0
3445781	2.074000e+00	-1.090381e+02	-3.063155e+00	0	0
3447734	2.074000e+00	-9.141487e+01	-2.738374e+00	0	0
3449688	2.074000e+00	-7.853402e+01	-2.303775e+00	0	0
3451641	2.074000e+00	-8.093257e+01	-2.173475e+00	0	0
3453594	2.074000e+00	-8.785695e+01	-1.976196e-01	0	0
3455547	2.074000e+00	-9.172346e+01	3.369749e+00	0	0
3457500	2.074000e+00	-9.683819e+01	4.954088e+00	0	0
3459453	2.074000e+00	-9.473965e+01	5.158846e+00	0	0
3461406	2.074000e+00	-7.501992e+01	3.873833e+00	0	0
3463359	2.074000e+00	-6.187672e+01	1.510957e+00	0	0
3465313	2.074000e+00	-5.997951e+01	6.136193e-01	0	0
3467266	2.074000e+00	-7.550506e+01	1.344394e+00	0	0
3469219	2.074000e+00	-8.793781e+01	2.070355e+00	0	0
3471172	2.074000e+00	-9.054514e+01	1.406257e+00	0	0
3473125	2.074000e+00	-8.641384e+01	-1.493926e+00	0	0
3475078	2.074000e+00	-7.762868e+01	-3.648261e+00	0	0
3477031	2.074000e+00	-7.283985e+01	-4.615164e+00	0	0
3478984	2.074000e+00	-6.205571e+01	-4.084467e+00	0	0
3480938	2.074000e+00	-6.870046e+01	-1.287358e+00	0	0
3482891	2.074000e+00	-7.257846e+01	2.781993e+00	0	0
3484844	2.074000e+00	-7.974121e+01	4.612124e+00	0	0
3486797	2.074000e+00	-6.577479e+01	3.698086e+00	0	0
3488750	2.074000e+00	-6.662003e+01	7.666443e+00	0	0
3490703	2.074000e+00	-8.504001e+01	1.693123e+01	0	0
3492656	2.074000e+00	-7.532626e+01	2.270449e+01	0	0
3494609	2.074432e+00	-8.539152e+01	2.513936e+01	0	0
3496563	2.075000e+00	-1.056846e+02	2.499988e+01	0	0
3498516	2.075000e+00	-1.145724e+02	2.238876e+01	0	0
3500469	2.075000e+00	-1.041638e+02	1.705710e+01	0	0
3502422	2.075000e+00	-1.152636e+02	1.380779e+01	0	0
3504375	2.075000e+00	-1.254259e+02	1.668895e+01	0	0
3506328	2.075000e+00	-1.046771e+02	1.146969e+01	0	0
3508281	2.075000e+00	-9.494960e+01	-1.763850e+00	0	0
3510234	2.075000e+00	-8.687200e+01	-1.038850e+01	0	0
3512188	2.075000e+00	-8.065746e+01	-1.804989e+01	0	0
3514141	2.075000e+00	-8.849266e+01	-2.280424e+01	0	0
3516094	2.075000e+00	-8.794395e+01	-1.851077e+01	0	0
3518047	2.075000e+00	-9.331207e+01	-3.824632e+00	0	0
3520000	2.075000e+00	-1.041087e+02	1.402037e+01	0	0
3521953	2.075000e+00	-1.222097e+02	3.111898e+01	0	0
3523906	2.075000e+00	-1.312919e+02	5.405498e+01	0	0
3525859	2.075000e+00	-1.081116e+02	7.386079e+01	0	0
3527813	2.075000e+00	-8.037705e+01	5.023139e+01	0	0
3529766	2.075000e+00	-7.171016e+01	-6.780618e+00	0	0
3531719	2.075000e+00	-7.328843e+01	-6.830326e+01	0	0
3533672	2.075000e+00	-7.608331e+01	-1.250288e+02	0	0
3535625	2.075000e+00	-8.381221e+01	-1.310702e+02	0	0
3537578	2.075000e+00	-8.541587e+01	-8.483465e+01	0	0
3539531	2.075000e+00	-9.868555e+01	-2.728412e+01	0	0
3541484	2.075000e+00	-9.630765e+01	2.180929e+01	0	0
3543438	2.075000e+00	-6.583477e+01	5.386475e+01	0	0
3545391	2.075000e+00	-1.352961e+01	4.682427e+01	0	0
3547344	2.075000e+00	1.604664e+01	2.810938e+01	0	0
3549297	2.075000e+00	1.527486e+01	1.720698e+01	0	0
3551250	2.075000e+00	3.509691e+01	5.038758e+00	0	0
3553203	2.075436e+00	3.846480e+01	2.053031e+00	0	0
3555156	2.075564e+00	4.141610e+01	2.373947e+00	0	0
3557109	2.075436e+00	5.465204e+01	-7.363086e+00	0	0
3559063	2.076000e+00	6.847216e+01	-7.800694e+00	0	0
3561016	2.076000e+00	6.299230e+01	-6.837163e+00	0	0
3562969	2.075563e+00	5.378418e+01	-4.837827e+00	0	0
3564922	2.075437e+00	7.040405e+01	-2.447940e+00	0	0
3566875	2.076000e+00	7.676691e+01	4.649680e-01	0	0
3568828	2.076000e+00	1.042533e+02	3.042185e+00	0	0
3570781	2.076000e+00	1.165979e+02	2.804645e+00	0	0
3572734	2.076000e+00	1.055287e+02	1.335726e+00	0	0
3574688	2.076000e+00	1.057728e+02	2.088576e+00	0	0
3576641	2.076000e+00	1.097508e+02	3.731104e+00	0	0
3578594	2.076000e+00	1.105119e+02	4.818100e+00	0	0
3580547	2.076000e+00	1.394975e+02	5.751011e+00	0	0
3582500	2.076000e+00	1.736074e+02	7.961007e+00	0	0
3584453	2.076000e+00	1.616734e+02	1.238174e+01	0	0
3586406	2.076000e+00	1.445702e+02	1.644725e+01	0	0
3588359	2.076000e+00	1.551199e+02	1.674835e+01	0	0
3590313	2.076000e+00	1.773427e+02	1.367490e+01	0	0
3592266	2.076000e+00	1.775502e+02	6.583697e+00	0	0
3594219	2.076000e+00	1.362800e+02	1.124565e+00	0	0
3596172	2.076000e+00	1.081151e+02	1.575897e+00	0	0
3598125	2.076000e+00	1.059977e+02	-6.741481e-01	0	0
3600078	2.076000e+00	1.045345e+02	-6.055781e+00	0	0
3602031	2.076000e+00	1.009517e+02	-1.031859e+01	0	0
3603984	2.076000e+00	6.723943e+01	-1.246748e+01	0	0
3605938	2.076000e+00	5.534616e+01	-1.161224e+01	0	0
3607891	2.076440e+00	5.302286e+01	-7.989863e+00	0	0
3609844	2.076560e+00	3.635445e+01	-4.750403e+00	0	0
3611797	2.076440e+00	1.514984e+01	-4.105324e+00	0	0
3613750	2.077000e+00	-1.279140e+01	-4.249453e+00	0	0
3615703	2.077000e+00	-3.840280e+01	-2.843686e+00	0	0
3617656	2.077000e+00	-6.778124e+01	7.668101e-01	0	0
3619609	2.077000e+00	-9.037667e+01	4.268951e+00	0	0
3621563	2.077000e+00	-1.136946e+02	5.989885e+00	0	0
3623516	2.077000e+00	-1.316828e+02	5.230991e+00	0	0
3625469	2.077000e+00	-1.247148e+02	2.050787e+00	0	0
3627422	2.077000e+00	-1.215245e+02	2.409547e-01	0	0
3629375	2.077000e+00	-1.254205e+02	8.104368e-01	0	0
3631328	2.077000e+00	-1.151357e+02	9.421801e-01	0	0
3633281	2.077000e+00	-1.173450e+02	1.149520e+00	0	0
3635234	2.077000e+00	-1.279349e+02	1.365156e+00	0	0
3637188	2.077000e+00	-1.436350e+02	1.076660e+00	0	0
3639141	2.077000e+00	-1.627715e+02	1.615545e-01	0	0
3641094	2.077000e+00	-1.621511e+02	-2.475080e-01	0	0
3643047	2.077000e+00	-1.693291e+02	7.019099e-02	0	0
3645000	2.077000e+00	-1.812321e+02	3.793173e-01	0	0
3646953	2.077000e+00	-1.783205e+02	3.003373e-01	0	0
3648906	2.077000e+00	-1.479732e+02	3.052156e-01	0	0
3650859	2.077000e+00	-1.414198e+02	2.948055e-01	0	0
3652813	2.077000e+00	-1.437474e+02	3.042713e-01	0	0
3654766	2.077000e+00	-1.381216e+02	2.740793e-01	0	0
3656719	2.077000e+00	-1.450674e+02	4.070661e-01	0	0
3658672	2.077443e+00	-1.620766e+02	6.167851e-01	0	0
3660625	2.078000e+00	-1.836003e+02	6.675560e-01	0	0
3662578	2.078000e+00	-1.818023e+02	8.059265e-01	0	0
3664531	2.078000e+00	-1.639830e+02	9.493937e-01	0	0
3666484	2.078000e+00	-1.633944e+02	1.046262e+00	0	0
3668438	2.078000e+00	-1.763600e+02	1.076238e+00	0	0
3670391	2.078000e+00	-1.684747e+02	1.140315e+00	0	0
3672344	2.078000e+00	-1.641020e+02	8.199998e-01	0	0
3674297	2.078000e+00	-1.764078e+02	6.873716e-01	0	0
3676250	2.078000e+00	-1.729291e+02	9.511697e-01	0	0
3678203	2.078000e+00	-1.738982e+02	7.816012e-01	0	0
3680156	2.078000e+00	-1.993259e+02	6.932618e-01	0	0
3682109	2.078000e+00	-2.231433e+02	5.774649e-01	0	0
3684063	2.078000e+00	-2.125011e+02	4.288278e-01	0	0
3686016	2.078000e+00	-1.982623e+02	1.973364e-01	0	0
3687969	2.078000e+00	-1.811994e+02	2.135088e-01	0	0
3689922	2.078000e+00	-1.484551e+02	1.757976e-01	0	0
3691875	2.078000e+00	-1.454539e+02	-6.476275e-02	0	0
3693828	2.078000e+00	-1.443935e+02	-1.013354e-01	0	0
3695781	2.078000e+00	-1.586080e+02	-1.815962e-01	0	0
3697734	2.078445e+00	-1.667846e+02	-2.485335e-01	0	0
3699688	2.079000e+00	-1.888606e+02	-3.173224e-01	0	0
3701641	2.079000e+00	-2.285156e+02	-3.839281e-01	0	0
3703594	2.079000e+00	-2.715176e+02	-4.477932e-01	0	0
3705547	2.079000e+00	-2.680396e+02	-4.857426e-01	0	0
3707500	2.079000e+00	-2.475145e+02	-5.024149e-01	0	0
3709453	2.079000e+00	-1.889280e+02	-5.235924e-01	0	0
3711406	2.079000e+00	-8.104400e+01	-5.439171e-01	0	0
3713359	2.079000e+00	3.558978e+00	-5.647967e-01	0	0
3715313	2.079000e+00	8.238456e+01	-5.858373e-01	0	0
3717266	2.079000e+00	1.696677e+02	-6.070980e-01	0	0
3719219	2.079000e+00	3.510608e+02	-6.285402e-01	0	0
3721172	2.079000e+00	6.371836e+02	-6.501494e-01	0	0
3723125	2.079000e+00	9.192142e+02	-6.719017e-01	0	0
3725078	2.079000e+00	1.191431e+03	-6.937759e-01	0	0
3727031	2.079000e+00	1.490545e+03	-7.157498e-01	0	0
3728984	2.079000e+00	1.743449e+03	-7.378018e-01	0	0
3730938	2.079000e+00	1.911114e+03	-7.599212e-01	0	0
3732891	2.079000e+00	1.899458e+03	-7.820636e-01	0	0
3734844	2.079000e+00	1.775504e+03	-8.042181e-01	0	0
3736797	2.079000e+00	1.501215e+03	-8.263642e-01	0	0
3738750	2.079448e+00	1.174910e+03	-8.484749e-01	0	0
3740703	2.080000e+00	9.545168e+02	-8.705475e-01	0	0
3742656	2.080000e+00	7.541344e+02	-8.924697e-01	0	0
3744609	2.080000e+00	5.555983e+02	-9.139793e-01	0	0
3746563	2.080000e+00	2.100468e+02	-9.348844e-01	0	0
3748516	2.080000e+00	-1.353481e+02	-9.549751e-01	0	0
3750469	2.080000e+00	-2.984045e+02	-9.741533e-01	0	0
3752422	2.080000e+00	-3.280629e+02	-9.924145e-01	0	0
3754375	2.080000e+00	-3.009491e+02	-1.009733e+00	0	0
3756328	2.080000e+00	-2.750983e+02	-1.026089e+00	0	0
3758281	2.080000e+00	-2.503649e+02	-1.041461e+00	0	0
3760234	2.080000e+00	-2.218628e+02	-1.055828e+00	0	0
3762188	2.080000e+00	-1.984029e+02	-1.069175e+00	0	0
3764141	2.080000e+00	-1.624717e+02	-1.081467e+00	0	0
3766094	2.080000e+00	-1.154737e+02	-1.092691e+00	0	0
3768047	2.080000e+00	-8.966093e+01	-1.102824e+00	0	0
3770000	2.080000e+00	-7.508239e+01	-1.111847e+00	0	0
3771953	2.080000e+00	-7.545930e+01	-1.119738e+00	0	0
3773906	2.080450e+00	-7.871694e+01	-1.126475e+00	0	0
3775859	2.081000e+00	-9.685080e+01	-1.132039e+00	0	0
3777813	2.081000e+00	-1.052495e+02	-1.135559e+00	0	0
3779766	2.081000e+00	-1.224545e+02	-1.113359e+00	0	0
3781719	2.081000e+00	-1.293870e+02	-1.067772e+00	0	0
3783672	2.081000e+00	-1.227500e+02	-1.024318e+00	0	0
3785625	2.081000e+00	-1.112303e+02	-9.779786e-01	0	0
3787578	2.081000e+00	-8.986407e+01	-9.302116e-01	0	0
3789531	2.081000e+00	-9.320727e+01	-8.800006e-01	0	0
3791484	2.081000e+00	-9.140264e+01	-8.257301e-01	0	0
3793438	2.081000e+00	-8.450903e+01	-7.668004e-01	0	0
3795391	2.081000e+00	-9.617972e+01	-7.036983e-01	0	0
3797344	2.081000e+00	-9.654074e+01	-6.366240e-01	0	0
3799297	2.081000e+00	-8.751457e+01	-5.658597e-01	0	0
3801250	2.081000e+00	-8.478214e+01	-4.916732e-01	0	0
3803203	2.081000e+00	-8.534212e+01	-4.143370e-01	0	0
3805156	2.081452e+00	-9.282058e+01	-3.341191e-01	0	0
3807109	2.082000e+00	-9.448336e+01	-2.513009e-01	0	0
3809063	2.081547e+00	-1.070378e+02	-1.660707e-01	0	0
3811016	2.081453e+00	-1.169132e+02	-7.893004e-02	0	0
3812969	2.082000e+00	-1.179662e+02	1.042780e-02	0	0
3814922	2.082000e+00	-1.097532e+02	9.973598e-02	0	0
3816875	2.082000e+00	-9.279547e+01	1.961731e-01	0	0
3818828	2.082000e+00	-8.398280e+01	2.661962e-01	0	0
3820781	2.082000e+00	-6.998195e+01	2.791985e-01	0	0
3822734	2.082000e+00	-7.461081e+01	2.769557e-01	0	0
3824688	2.082000e+00	-7.949205e+01	2.772760e-01	0	0
3826641	2.082000e+00	-7.406656e+01	2.769103e-01	0	0
3828594	2.082000e+00	-7.029791e+01	2.767290e-01	0	0
3830547	2.082000e+00	-6.756425e+01	2.764989e-01	0	0
3832500	2.082000e+00	-8.012957e+01	2.762824e-01	0	0
3834453	2.082000e+00	-7.918250e+01	2.760629e-01	0	0
3836406	2.082000e+00	-7.617559e+01	2.758449e-01	0	0
3838359	2.082000e+00	-7.474603e+01	2.756271e-01	0	0
3840313	2.082455e+00	-7.342703e+01	2.754098e-01	0	0
3842266	2.083000e+00	-7.763395e+01	2.751931e-01	0	0
3844219	2.083000e+00	-7.663298e+01	2.749771e-01	0	0
3846172	2.083000e+00	-5.480121e+01	2.747609e-01	0	0
3848125	2.083000e+00	-3.706374e+01	2.745476e-01	0	0
3850078	2.083000e+00	-4.360967e+01	2.743264e-01	0	0
3852031	2.083000e+00	-3.570943e+01	2.741373e-01	0	0
3853984	2.083000e+00	-3.624783e+01	2.738307e-01	0	0
3855938	2.083000e+00	-4.182690e+01	2.739656e-01	0	0
3857891	2.083000e+00	-3.693250e+01	2.724544e-01	0	0
3859844	2.083000e+00	-4.433286e+01	2.770908e-01	0	0
3861797	2.083000e+00	-4.363747e+01	2.532989e-01	0	0
3863750	2.083000e+00	-5.051464e+01	1.798432e-01	0	0
3865703	2.083457e+00	-5.734088e+01	1.357391e-01	0	0
3867656	2.084000e+00	-4.647832e+01	1.547880e-01	0	0
3869609	2.084000e+00	-3.351277e+01	2.308058e-01	0	0
3871563	2.084000e+00	-3.340530e+01	2.803189e-01	0	0
3873516	2.084000e+00	-1.967418e+01	2.667469e-01	0	0
3875469	2.084000e+00	8.175544e+00	2.940949e-01	0	0
3877422	2.084000e+00	4.518890e+01	3.473693e-01	0	0
3879375	2.084000e+00	6.107242e+01	3.874614e-01	0	0
3881328	2.084000e+00	9.613655e+00	4.224545e-01	0	0
3883281	2.084000e+00	-3.670871e+01	4.502017e-01	0	0
3885234	2.084000e+00	-3.451680e+01	4.712982e-01	0	0
3887188	2.084000e+00	-3.483929e+00	4.856068e-01	0	0
3889141	2.084000e+00	5.506832e+01	4.931768e-01	0	0
3891094	2.084000e+00	8.542596e+01	4.939375e-01	0	0
3893047	2.084000e+00	5.869164e+01	4.881738e-01	0	0
3895000	2.084459e+00	3.879629e+01	4.765928e-01	0	0
3896953	2.085000e+00	1.715050e+01	4.602589e-01	0	0
3898906	2.085000e+00	4.012278e+00	4.374388e-01	0	0
3900859	2.085000e+00	1.893420e+01	4.149270e-01	0	0
3902813	2.085000e+00	3.730585e+01	3.675077e-01	0	0
3904766	2.085000e+00	4.674474e+01	4.059917e-01	0	0
3906719	2.085000e+00	4.856877e+01	5.596924e-01	0	0
3908672	2.085000e+00	5.484796e+01	6.561142e-01	0	0
3910625	2.085000e+00	6.982136e+01	6.601792e-01	0	0
3912578	2.085000e+00	8.268991e+01	5.277814e-01	0	0
3914531	2.085000e+00	9.480794e+01	3.099475e-01	0	0
3916484	2.085000e+00	1.133517e+02	2.082495e-01	0	0
3918438	2.085000e+00	1.088100e+02	2.285359e-01	0	0
3920391	2.085461e+00	1.005650e+02	1.623805e-01	0	0
3922344	2.086000e+00	1.114477e+02	4.419954e-01	0	0
3924297	2.086000e+00	1.230742e+02	2.210154e+00	0	0
3926250	2.086000e+00	1.362706e+02	4.080108e+00	0	0
3928203	2.086000e+00	1.502635e+02	3.505026e+00	0	0
3930156	2.086000e+00	1.685597e+02	1.132459e+00	0	0
3932109	2.086000e+00	1.798445e+02	-2.144299e-02	0	0
3934063	2.086000e+00	1.830963e+02	1.520303e-01	0	0
3936016	2.086000e+00	2.010846e+02	1.478287e-01	0	0
3937969	2.086000e+00	2.034775e+02	-2.359232e+00	0	0
3939922	2.086000e+00	2.053004e+02	-6.200329e+00	0	0
3941875	2.086000e+00	2.169633e+02	-7.441427e+00	0	0
3943828	2.086000e+00	2.348572e+02	-5.709235e+00	0	0
3945781	2.086000e+00	2.658164e+02	-3.610895e+00	0	0
3947734	2.086462e+00	2.915332e+02	-3.497392e+00	0	0
3949688	2.087000e+00	3.070982e+02	-2.941232e+00	0	0
3951641	2.087000e+00	3.096110e+02	-2.262330e+00	0	0
3953594	2.087000e+00	3.096637e+02	-6.140749e-01	0	0
3955547	2.087000e+00	3.127908e+02	1.312337e+00	0	0
3957500	2.087000e+00	3.269572e+02	1.622921e+00	0	0
3959453	2.087000e+00	3.350293e+02	5.930134e-01	0	0
3961406	2.087000e+00	3.445344e+02	-1.086862e-01	0	0
3963359	2.087000e+00	3.664348e+02	-2.246949e-02	0	0
3965313	2.087000e+00	3.910040e+02	1.498178e-01	0	0
3967266	2.087000e+00	4.043228e+02	1.157525e+00	0	0
3969219	2.087000e+00	4.314739e+02	2.368872e+00	0	0
3971172	2.087464e+00	4.517607e+02	3.203948e+00	0	0
3973125	2.088000e+00	4.598277e+02	3.695524e+00	0	0
3975078	2.088000e+00	4.684645e+02	3.827504e+00	0	0
3977031	2.088000e+00	4.777534e+02	3.773571e+00	0	0
3978984	2.088000e+00	4.779576e+02	3.622124e+00	0	0
3980938	2.088000e+00	4.660901e+02	3.364323e+00	0	0
3982891	2.088000e+00	4.764169e+02	3.004760e+00	0	0
3984844	2.088000e+00	5.015684e+02	2.557435e+00	0	0
3986797	2.088000e+00	5.123765e+02	2.043756e+00	0	0
3988750	2.088000e+00	5.210937e+02	1.463688e+00	0	0
3990703	2.088000e+00	5.354535e+02	8.497835e-01	0	0
3992656	2.088465e+00	5.317159e+02	1.265503e-01	0	0
3994609	2.089000e+00	5.365724e+02	-2.361992e-01	0	0
3996563	2.089000e+00	5.341352e+02	-1.678835e-01	0	0
3998516	2.089000e+00	4.900061e+02	-2.260403e-01	0	0
4000469	2.089000e+00	4.424722e+02	-7.733011e-02	0	0
4002422	2.089000e+00	4.208561e+02	5.657831e-01	0	0
4004375	2.089000e+00	4.044455e+02	1.211799e+00	0	0
4006328	2.089000e+00	4.142285e+02	7.227764e-01	0	0
4008281	2.089000e+00	4.419633e+02	-1.430656e-01	0	0
4010234	2.089000e+00	4.300848e+02	-2.694131e-01	0	0
4012188	2.089000e+00	3.813902e+02	-2.622827e-01	0	0
4014141	2.089467e+00	3.093364e+02	-2.805489e-01	0	0
4016094	2.090000e+00	2.412529e+02	-3.165074e-01	0	0
4018047	2.090000e+00	2.218360e+02	-1.621209e+00	0	0
4020000	2.090000e+00	2.095972e+02	-3.324336e+00	0	0
4021953	2.090000e+00	1.831528e+02	-3.097903e+00	0	0
4023906	2.090000e+00	1.475163e+02	-2.206042e+00	0	0
4025859	2.090000e+00	1.201433e+02	-2.032673e+00	0	0
4027813	2.090000e+00	1.181122e+02	-2.167135e+00	0	0
4029766	2.090000e+00	1.067249e+02	-2.129705e+00	0	0
4031719	2.090000e+00	4.905507e+01	-2.132955e+00	0	0
4033672	2.090468e+00	1.460249e+01	-1.635435e+00	0	0
4035625	2.091000e+00	6.043950e+00	-5.906911e-01	0	0
4037578	2.091000e+00	-8.022190e-02	1.447775e-01	0	0
4039531	2.091000e+00	-2.572171e+01	4.714971e-01	0	0
4041484	2.091000e+00	-4.354509e+01	4.365109e-01	0	0
4043438	2.091000e+00	-3.785003e+01	-1.014236e-01	0	0
4045391	2.091000e+00	-4.281011e+01	-4.807618e-01	0	0
4047344	2.091000e+00	-3.937573e+01	-4.156535e-01	0	0
4049297	2.091000e+00	-4.834664e+01	-4.440826e-01	0	0
4051250	2.091000e+00	-5.585323e+01	-4.473056e-01	0	0
4053203	2.091000e+00	-6.599141e+01	-4.574477e-01	0	0
4055156	2.091469e+00	-7.372350e+01	-4.647376e-01	0	0
4057109	2.092000e+00	-8.818924e+01	-4.761298e-01	0	0
4059063	2.092000e+00	-1.018613e+02	-4.735663e-01	0	0
4061016	2.092000e+00	-1.096670e+02	-5.453095e-01	0	0
4062969	2.092000e+00	-1.209599e+02	-9.834561e-01	0	0
4064922	2.092000e+00	-1.233130e+02	-1.545049e+00	0	0
4066875	2.092000e+00	-1.138798e+02	-1.145697e+00	0	0
4068828	2.092000e+00	-9.614228e+01	-5.213631e-01	0	0
4070781	2.092000e+00	-8.465562e+01	-5.375245e-01	0	0
4072734	2.092000e+00	-8.249849e+01	-5.358717e-01	0	0
4074688	2.092471e+00	-8.202723e+01	-5.491057e-01	0	0
4076641	2.093000e+00	-9.008173e+01	-5.365013e-01	0	0
4078594	2.093000e+00	-8.874669e+01	-3.822911e-01	0	0
4080547	2.093000e+00	-1.095276e+02	5.749782e-02	0	0
4082500	2.093000e+00	-1.266682e+02	-1.822242e-01	0	0
4084453	2.093000e+00	-1.131031e+02	-6.616800e-01	0	0
4086406	2.093000e+00	-9.889131e+01	-5.698933e-01	0	0
4088359	2.093000e+00	-9.215729e+01	-6.035875e-01	0	0
4090313	2.093000e+00	-8.917451e+01	-6.035548e-01	0	0
4092266	2.093000e+00	-7.634336e+01	-6.124452e-01	0	0
4094219	2.093000e+00	-8.826307e+01	-6.188234e-01	0	0
4096172	2.093472e+00	-1.001868e+02	-6.257898e-01	0	0
4098125	2.094000e+00	-9.983217e+01	-6.323711e-01	0	0
4100078	2.094000e+00	-1.105592e+02	-6.393523e-01	0	0
4102031	2.094000e+00	-1.275040e+02	-6.445597e-01	0	0
4103984	2.094000e+00	-1.336383e+02	-6.558963e-01	0	0
4105938	2.094000e+00	-1.174701e+02	-6.439060e-01	0	0
4107891	2.094000e+00	-9.880877e+01	-7.330274e-01	0	0
4109844	2.094000e+00	-8.858810e+01	-7.982352e-01	0	0
4111797	2.094000e+00	-9.261102e+01	-7.047358e-01	0	0
4113750	2.094473e+00	-8.453818e+01	-6.775216e-01	0	0
4115703	2.095000e+00	-9.379037e+01	-6.925273e-01	0	0
4117656	2.095000e+00	-1.049214e+02	-7.047645e-01	0	0
4119609	2.095000e+00	-1.128565e+02	-7.182629e-01	0	0
4121563	2.095000e+00	-1.178692e+02	-7.313451e-01	0	0
4123516	2.095000e+00	-1.049050e+02	-7.444297e-01	0	0
4125469	2.095000e+00	-1.040990e+02	-7.574049e-01	0	0
4127422	2.095000e+00	-9.742684e+01	-7.703012e-01	0	0
4129375	2.095000e+00	-1.011344e+02	-7.831040e-01	0	0
4131328	2.095474e+00	-8.787155e+01	-7.958300e-01	0	0
4133281	2.096000e+00	-8.287237e+01	-8.084154e-01	0	0
4135234	2.096000e+00	-9.943051e+01	-8.210874e-01	0	0
4137188	2.096000e+00	-1.041772e+02	-8.329956e-01	0	0
4139141	2.096000e+00	-1.129168e+02	-8.473169e-01	0	0
4141094	2.096000e+00	-1.191283e+02	-8.521427e-01	0	0
4143047	2.096000e+00	-1.199355e+02	-8.919361e-01	0	0
4145000	2.096000e+00	-1.134317e+02	-7.720882e-01	0	0
4146953	2.096000e+00	-1.125029e+02	-5.225800e-01	0	0
4148906	2.096476e+00	-1.079657e+02	-4.024905e-01	0	0
4150859	2.097000e+00	-9.494678e+01	-3.862943e-01	0	0
4152813	2.097000e+00	-1.020752e+02	-5.187548e-01	0	0
4154766	2.097000e+00	-9.487119e+01	-8.115452e-01	0	0
4156719	2.097000e+00	-8.940395e+01	-9.757991e-01	0	0
4158672	2.097000e+00	-8.941370e+01	-9.571349e-01	0	0
4160625	2.097000e+00	-9.648637e+01	-9.754716e-01	0	0
4162578	2.097000e+00	-1.108188e+02	-9.875977e-01	0	0
4164531	2.097477e+00	-1.076760e+02	-9.830483e-01	0	0
4166484	2.098000e+00	-1.023628e+02	-9.524321e-01	0	0
4168438	2.098000e+00	-8.616923e+01	-9.234488e-01	0	0
4170391	2.098000e+00	-7.797151e+01	-8.947605e-01	0	0
4172344	2.098000e+00	-7.949636e+01	-8.671254e-01	0	0
4174297	2.098000e+00	-8.462470e+01	-8.403083e-01	0	0
4176250	2.098000e+00	-7.949661e+01	-8.143344e-01	0	0
4178203	2.098000e+00	-8.754682e+01	-7.891588e-01	0	0
4180156	2.098000e+00	-1.051286e+02	-7.647554e-01	0	0
4182109	2.098478e+00	-1.018040e+02	-7.410933e-01	0	0
4184063	2.099000e+00	-1.043970e+02	-7.181312e-01	0	0
4186016	2.099000e+00	-9.872550e+01	-6.958622e-01	0	0
4187969	2.099000e+00	-8.379445e+01	-6.742452e-01	0	0
4189922	2.099000e+00	-8.261074e+01	-6.532473e-01	0	0
4191875	2.099000e+00	-8.222856e+01	-6.328497e-01	0	0
4193828	2.099000e+00	-8.578592e+01	-6.129804e-01	0	0
4195781	2.099000e+00	-8.808131e+01	-5.937660e-01	0	0
4197734	2.099479e+00	-7.757288e+01	-5.745920e-01	0	0
4199688	2.100000e+00	-8.428155e+01	-5.576014e-01	0	0
4201641	2.100000e+00	-9.984298e+01	-4.733068e-01	0	0
4203594	2.100000e+00	-1.076963e+02	1.109289e+00	0	0
4205547	2.100000e+00	-8.541031e+01	3.559101e+00	0	0
4207500	2.100000e+00	-7.693635e+01	4.939541e+00	0	0
4209453	2.100000e+00	-8.352011e+01	5.418512e+00	0	0
4211406	2.100000e+00	-7.292840e+01	4.871466e+00	0	0
4213359	2.100000e+00	-8.535486e+01	3.478502e+00	0	0
4215313	2.100000e+00	-9.107185e+01	5.358583e-01	0	0
4217266	2.100480e+00	-7.947067e+01	-9.453360e-01	0	0
4219219	2.101000e+00	-7.846076e+01	-4.138988e-01	0	0
4221172	2.101000e+00	-8.089497e+01	-2.530963e-01	0	0
4223125	2.101000e+00	-9.207482e+01	-1.485871e+00	0	0
4225078	2.101000e+00	-8.686116e+01	-5.503668e+00	0	0
4227031	2.101000e+00	-6.664407e+01	-9.216300e+00	0	0
4228984	2.101000e+00	-6.244560e+01	-1.052879e+01	0	0
4230938	2.101000e+00	-5.763946e+01	-9.453210e+00	0	0
4232891	2.101482e+00	-6.914100e+01	-6.154313e+00	0	0
4234844	2.102000e+00	-8.665203e+01	-1.974975e+00	0	0
4236797	2.102000e+00	-9.499600e+01	-2.514718e-01	0	0
4238750	2.102000e+00	-9.747478e+01	-1.057242e+00	0	0
4240703	2.102000e+00	-9.144120e+01	1.252717e+00	0	0
4242656	2.102000e+00	-9.839372e+01	6.364694e+00	0	0
4244609	2.102000e+00	-1.021525e+02	9.721622e+00	0	0
4246563	2.102482e+00	-1.009093e+02	1.046579e+01	0	0
4248516	2.103000e+00	-1.053080e+02	8.243135e+00	0	0
4250469	2.103000e+00	-8.197415e+01	2.581163e+00	0	0
4252422	2.103000e+00	-7.217625e+01	-1.241451e+00	0	0
4254375	2.103000e+00	-6.259934e+01	-7.842811e-01	0	0
4256328	2.103000e+00	-5.321882e+01	-2.486623e+00	0	0
4258281	2.103000e+00	-8.321990e+01	-6.780160e+00	0	0
4260234	2.103000e+00	-1.080986e+02	-1.013607e+01	0	0
4262188	2.103484e+00	-1.117862e+02	-1.099337e+01	0	0
4264141	2.104000e+00	-1.041225e+02	-9.255758e+00	0	0
4266094	2.104000e+00	-9.212863e+01	-4.328545e+00	0	0
4268047	2.104000e+00	-7.656749e+01	-1.608051e+00	0	0
4270000	2.104000e+00	-6.429374e+01	-2.189434e+00	0	0
4271953	2.104000e+00	-7.465579e+01	-2.089144e+00	0	0
4273906	2.104000e+00	-8.753429e+01	-2.025142e+00	0	0
4275859	2.104000e+00	-1.115178e+02	-4.941071e-01	0	0
4277813	2.104485e+00	-1.333808e+02	1.763089e+00	0	0
4279766	2.105000e+00	-1.200982e+02	3.364784e+00	0	0
4281719	2.105000e+00	-1.168346e+02	4.105409e+00	0	0
4283672	2.105000e+00	-1.207449e+02	3.587327e+00	0	0
4285625	2.105000e+00	-1.087932e+02	2.251566e+00	0	0
4287578	2.105000e+00	-8.471822e+01	6.382608e-01	0	0
4289531	2.105000e+00	-6.548292e+01	-1.174120e+00	0	0
4291484	2.105485e+00	-6.479196e+01	-2.287860e+00	0	0
4293438	2.106000e+00	-8.062739e+01	-2.360480e+00	0	0
4295391	2.106000e+00	-9.249715e+01	-2.377031e+00	0	0
4297344	2.106000e+00	-8.204290e+01	-2.396562e+00	0	0
4299297	2.106000e+00	-6.023415e+01	-2.401339e+00	0	0
4301250	2.106000e+00	-3.982239e+01	-2.451402e+00	0	0
4303203	2.106000e+00	-1.459278e+01	-2.323427e+00	0	0
4305156	2.106486e+00	1.398248e-01	-3.024763e+00	0	0
4307109	2.106514e+00	2.733343e+00	-4.874887e+00	0	0
4309063	2.106487e+00	1.861920e+01	-6.240423e+00	0	0
4311016	2.107000e+00	5.597977e+01	-6.608261e+00	0	0
4312969	2.107000e+00	7.200975e+01	-6.107048e+00	0	0
4314922	2.107000e+00	8.941592e+01	-4.348253e+00	0	0
4316875	2.107000e+00	1.227094e+02	-2.987243e+00	0	0
4318828	2.107000e+00	9.585335e+01	-3.317387e+00	0	0
4320781	2.107487e+00	5.439757e+01	-4.050753e+00	0	0
4322734	2.108000e+00	5.542570e+01	-4.691842e+00	0	0
4324688	2.108000e+00	6.442409e+01	-4.164639e+00	0	0
4326641	2.108000e+00	8.018408e+01	-2.020253e+00	0	0
4328594	2.108000e+00	1.045447e+02	-1.661192e-01	0	0
4330547	2.108000e+00	1.236609e+02	2.777601e-01	0	0
4332500	2.108488e+00	1.227629e+02	-3.300625e-01	0	0
4334453	2.108512e+00	1.221351e+02	-2.340094e+00	0	0
4336406	2.108488e+00	1.322455e+02	-4.894721e+00	0	0
4338359	2.109000e+00	1.462384e+02	-5.798972e+00	0	0
4340313	2.109000e+00	1.640949e+02	-5.747646e+00	0	0
4342266	2.109000e+00	1.491655e+02	-5.703218e+00	0	0
4344219	2.109000e+00	1.456139e+02	-8.126122e+00	0	0
4346172	2.109489e+00	1.299570e+02	-1.212267e+01	0	0
4348125	2.110000e+00	1.066404e+02	-1.375410e+01	0	0
4350078	2.110000e+00	1.334868e+02	-1.349468e+01	0	0
4352031	2.110000e+00	1.445516e+02	-1.082960e+01	0	0
4353984	2.110000e+00	1.337950e+02	-8.403142e+00	0	0
4355938	2.110000e+00	1.515718e+02	-7.868229e+00	0	0
4357891	2.110000e+00	1.570417e+02	-7.330744e+00	0	0
4359844	2.110490e+00	1.224855e+02	-6.308640e+00	0	0
4361797	2.111000e+00	6.915799e+01	-3.424886e+00	0	0
4363750	2.111000e+00	3.123196e+01	-4.782944e-01	0	0
4365703	2.111000e+00	1.797648e+01	6.744915e-02	0	0
4367656	2.111000e+00	3.412178e+01	-5.698303e-01	0	0
4369609	2.111000e+00	3.546532e+01	-2.055872e+00	0	0
4371563	2.111000e+00	3.280762e+00	-3.100892e+00	0	0
4373516	2.111000e+00	-3.436041e+01	-2.855972e+00	0	0
4375469	2.111491e+00	-9.399964e+01	-2.491741e+00	0	0
4377422	2.112000e+00	-1.118777e+02	-2.092920e+00	0	0
4379375	2.112000e+00	-1.179330e+02	-1.832025e+00	0	0
4381328	2.112000e+00	-1.352104e+02	-1.476940e+00	0	0
4383281	2.112000e+00	-1.327556e+02	-1.345385e+00	0	0
4385234	2.112000e+00	-1.162570e+02	-1.588383e+00	0	0
4387188	2.112000e+00	-1.205729e+02	-1.128895e+00	0	0
4389141	2.112000e+00	-1.246040e+02	2.275163e-02	0	0
4391094	2.112492e+00	-1.133920e+02	7.549328e-01	0	0
4393047	2.113000e+00	-1.214775e+02	1.011565e+00	0	0
4395000	2.113000e+00	-1.329012e+02	1.313410e+00	0	0
4396953	2.113000e+00	-1.258843e+02	1.532731e+00	0	0
4398906	2.113000e+00	-1.202465e+02	1.688367e+00	0	0
4400859	2.113492e+00	-1.327268e+02	1.767140e+00	0	0
4402813	2.114000e+00	-1.398012e+02	1.736696e+00	0	0
4404766	2.114000e+00	-1.683390e+02	1.674727e+00	0	0
4406719	2.114000e+00	-1.681633e+02	1.576817e+00	0	0
4408672	2.114000e+00	-1.681933e+02	1.257855e+00	0	0
4410625	2.114000e+00	-1.680317e+02	4.795833e-01	0	0
4412578	2.114000e+00	-1.579649e+02	2.825561e-01	0	0
4414531	2.114493e+00	-1.702328e+02	7.970347e-01	0	0
4416484	2.115000e+00	-1.659993e+02	1.159126e+00	0	0
4418438	2.115000e+00	-1.781686e+02	1.532331e+00	0	0
