time	gsr	ecg	emg_trapezius	emg_corrugator	emg_zygomaticus
234	2.212000e+00	-2.609666e+02	-2.211951e+00	0	0
2188	2.212000e+00	-2.752545e+02	-2.618634e+00	0	0
4141	2.212000e+00	-2.852752e+02	-3.010793e+00	0	0
6094	2.212000e+00	-2.899345e+02	-3.382316e+00	0	0
8047	2.212000e+00	-2.905096e+02	-3.730092e+00	0	0
10000	2.212000e+00	-2.806499e+02	-4.039026e+00	0	0
11953	2.212000e+00	-2.704671e+02	-4.171538e+00	0	0
13906	2.212000e+00	-2.697463e+02	-4.041730e+00	0	0
15859	2.212000e+00	-2.714921e+02	-3.691586e+00	0	0
17813	2.212000e+00	-2.826874e+02	-3.148984e+00	0	0
19766	2.212000e+00	-2.897287e+02	-2.445723e+00	0	0
21719	2.212000e+00	-3.080331e+02	-1.610466e+00	0	0
23672	2.212000e+00	-3.060445e+02	-6.787019e-01	0	0
25625	2.212000e+00	-3.182294e+02	1.642456e-03	0	0
27578	2.212000e+00	-3.104972e+02	-3.600991e-02	0	0
29531	2.212000e+00	-3.041432e+02	-2.460807e-02	0	0
31484	2.212000e+00	-2.972035e+02	-2.855056e-02	0	0
33438	2.212000e+00	-2.928309e+02	-2.010350e-02	0	0
35391	2.212000e+00	-2.838251e+02	-4.588389e-02	0	0
37344	2.212000e+00	-2.998990e+02	5.435112e-02	0	0
39297	2.212000e+00	-2.985930e+02	1.325267e+00	0	0
41250	2.212000e+00	-3.047347e+02	2.327327e+00	0	0
43203	2.212000e+00	-3.199139e+02	3.259327e+00	0	0
45156	2.212000e+00	-3.107051e+02	3.569647e+00	0	0
47109	2.212000e+00	-3.174020e+02	3.273276e+00	0	0
49063	2.212000e+00	-3.050636e+02	2.445920e+00	0	0
51016	2.212000e+00	-2.979850e+02	1.305962e+00	0	0
52969	2.212000e+00	-2.799966e+02	9.183634e-01	0	0
54922	2.212000e+00	-2.782696e+02	7.625674e-01	0	0
56875	2.212000e+00	-2.879106e+02	5.137909e-01	0	0
58828	2.212000e+00	-2.959422e+02	2.003178e-01	0	0
60781	2.212000e+00	-2.964891e+02	-2.567735e-02	0	0
62734	2.212000e+00	-3.081052e+02	-1.208921e-02	0	0
64688	2.212000e+00	-3.160351e+02	-1.474070e-02	0	0
66641	2.212000e+00	-3.146182e+02	-1.301277e-02	0	0
68594	2.212000e+00	-3.043821e+02	-1.250558e-02	0	0
70547	2.212000e+00	-2.954546e+02	-1.146778e-02	0	0
72500	2.212000e+00	-2.774436e+02	-1.129334e-02	0	0
74453	2.212000e+00	-2.742226e+02	-8.157396e-03	0	0
76406	2.211893e+00	-2.791346e+02	-1.619449e-02	0	0
78359	2.211000e+00	-2.845089e+02	-2.346213e-01	0	0
80313	2.211000e+00	-2.876334e+02	-7.007952e-01	0	0
82266	2.211107e+00	-3.026015e+02	-1.087429e+00	0	0
84219	2.212000e+00	-2.972934e+02	-1.410975e+00	0	0
86172	2.211893e+00	-2.982982e+02	-1.643885e+00	0	0
88125	2.211000e+00	-2.932123e+02	-1.818355e+00	0	0
90078	2.211000e+00	-2.833760e+02	-1.374451e+00	0	0
92031	2.211000e+00	-2.803231e+02	9.705490e-01	0	0
93984	2.211000e+00	-2.623085e+02	1.493134e+00	0	0
95938	2.211000e+00	-2.653693e+02	2.658422e-01	0	0
97891	2.211000e+00	-2.709035e+02	-1.021372e+00	0	0
99844	2.211000e+00	-2.740805e+02	-4.685609e-01	0	0
101797	2.211000e+00	-2.774747e+02	1.920133e-02	0	0
103750	2.211000e+00	-2.854959e+02	-1.228910e-01	0	0
105703	2.211000e+00	-2.875945e+02	-2.148978e+00	0	0
107656	2.211000e+00	-2.834128e+02	-3.727570e+00	0	0
109609	2.211000e+00	-2.721289e+02	-3.963654e+00	0	0
111563	2.211000e+00	-2.623153e+02	-2.685382e+00	0	0
113516	2.211000e+00	-2.511951e+02	-4.221825e-02	0	0
115469	2.211000e+00	-2.540762e+02	-2.515284e-02	0	0
117422	2.211000e+00	-2.587211e+02	1.732977e-01	0	0
119375	2.211000e+00	-2.611277e+02	6.340612e-01	0	0
121328	2.211000e+00	-2.703468e+02	1.069389e+00	0	0
123281	2.211000e+00	-2.763899e+02	1.608007e+00	0	0
125234	2.211000e+00	-2.784342e+02	1.641250e+00	0	0
127188	2.211000e+00	-2.733425e+02	3.339405e+00	0	0
129141	2.211000e+00	-2.647981e+02	4.355535e+00	0	0
131094	2.211000e+00	-2.601442e+02	4.846446e+00	0	0
133047	2.211000e+00	-2.466109e+02	4.751508e+00	0	0
135000	2.211000e+00	-2.457180e+02	4.081018e+00	0	0
136953	2.211000e+00	-2.481910e+02	2.900031e+00	0	0
138906	2.211000e+00	-2.527698e+02	1.345129e+00	0	0
140859	2.211000e+00	-2.567335e+02	5.760849e-02	0	0
142813	2.211000e+00	-2.631614e+02	8.806988e-03	0	0
144766	2.211000e+00	-2.667632e+02	-2.018883e-03	0	0
146719	2.211000e+00	-2.699873e+02	-7.327561e-04	0	0
148672	2.211000e+00	-2.630714e+02	4.951055e-03	0	0
150625	2.211000e+00	-2.487964e+02	-1.978000e-02	0	0
152578	2.211000e+00	-2.434140e+02	-6.508336e-01	0	0
154531	2.210890e+00	-2.383509e+02	-2.023707e+00	0	0
156484	2.210110e+00	-2.420070e+02	-3.118760e+00	0	0
158438	2.211000e+00	-2.396469e+02	-3.931591e+00	0	0
160391	2.211000e+00	-2.480924e+02	-4.365363e+00	0	0
162344	2.211000e+00	-2.591977e+02	-4.375472e+00	0	0
164297	2.211000e+00	-2.572278e+02	-3.973879e+00	0	0
166250	2.210889e+00	-2.629454e+02	-3.227045e+00	0	0
168203	2.210000e+00	-2.653119e+02	-2.201997e+00	0	0
170156	2.210000e+00	-2.511853e+02	-9.585274e-01	0	0
172109	2.210000e+00	-2.386476e+02	4.824934e-02	0	0
174063	2.210000e+00	-2.333009e+02	-1.322480e-02	0	0
176016	2.210000e+00	-2.359601e+02	4.468658e-03	0	0
177969	2.210000e+00	-2.453955e+02	-4.737193e-03	0	0
179922	2.210000e+00	-2.489441e+02	-7.342316e-02	0	0
181875	2.210000e+00	-2.644645e+02	-2.025453e-01	0	0
183828	2.210000e+00	-2.739553e+02	-2.674210e-01	0	0
185781	2.210000e+00	-2.715982e+02	1.622447e-01	0	0
187734	2.210000e+00	-2.645782e+02	6.495974e-01	0	0
189688	2.210000e+00	-2.567728e+02	1.022781e+00	0	0
191641	2.210000e+00	-2.501386e+02	1.325753e+00	0	0
193594	2.210000e+00	-2.447056e+02	1.598591e+00	0	0
195547	2.210000e+00	-2.446798e+02	1.823691e+00	0	0
197500	2.210000e+00	-2.518154e+02	1.987360e+00	0	0
199453	2.210000e+00	-2.527499e+02	2.073156e+00	0	0
201406	2.210000e+00	-2.595271e+02	2.066049e+00	0	0
203359	2.210000e+00	-2.738165e+02	1.948757e+00	0	0
205313	2.210000e+00	-2.758131e+02	1.674448e+00	0	0
207266	2.210000e+00	-2.776460e+02	1.234629e+00	0	0
209219	2.210000e+00	-2.719044e+02	6.499663e-01	0	0
211172	2.210000e+00	-2.578209e+02	-1.688903e-02	0	0
213125	2.210000e+00	-2.441832e+02	-3.439517e-01	0	0
215078	2.210000e+00	-2.513653e+02	-2.973863e-01	0	0
217031	2.210000e+00	-2.541954e+02	-2.748028e-01	0	0
218984	2.210000e+00	-2.615889e+02	-2.458457e-01	0	0
220938	2.210000e+00	-2.692016e+02	-2.183412e-01	0	0
222891	2.210000e+00	-2.720226e+02	-1.899233e-01	0	0
224844	2.210000e+00	-2.858003e+02	-1.609201e-01	0	0
226797	2.210000e+00	-2.831315e+02	-1.309685e-01	0	0
228750	2.210000e+00	-2.726240e+02	-9.978606e-02	0	0
230703	2.210000e+00	-2.597600e+02	-6.747383e-02	0	0
232656	2.210000e+00	-2.444492e+02	-3.251859e-02	0	0
234609	2.210000e+00	-2.376672e+02	4.654613e-04	0	0
236563	2.210000e+00	-2.379033e+02	-3.643885e-04	0	0
238516	2.210000e+00	-2.297767e+02	7.295854e-05	0	0
240469	2.210000e+00	-2.370107e+02	7.261304e-05	0	0
242422	2.210000e+00	-2.281396e+02	-3.634824e-04	0	0
244375	2.210000e+00	-1.928175e+02	1.381544e-03	0	0
246328	2.210000e+00	-1.779730e+02	-5.236220e-03	0	0
248281	2.210000e+00	-1.615226e+02	-4.810175e-02	0	0
250234	2.210000e+00	-1.328951e+02	4.590450e-03	0	0
252188	2.210000e+00	-1.160295e+02	-4.482874e-03	0	0
254141	2.210000e+00	-1.077632e+02	1.332528e-02	0	0
256094	2.209885e+00	-9.992736e+01	-4.868031e-02	0	0
258047	2.209000e+00	-1.037188e+02	3.196306e-01	0	0
260000	2.209000e+00	-1.100936e+02	3.251563e+00	0	0
261953	2.209115e+00	-1.165603e+02	4.375607e+00	0	0
263906	2.209885e+00	-1.082504e+02	3.968724e+00	0	0
265859	2.209000e+00	-1.046614e+02	1.901598e+00	0	0
267813	2.209000e+00	-9.266658e+01	-1.031771e-01	0	0
269766	2.209000e+00	-7.895802e+01	3.422940e-02	0	0
271719	2.209000e+00	-6.178432e+01	-3.553770e-02	0	0
273672	2.209000e+00	-5.545953e+01	-1.530301e+00	0	0
275625	2.209000e+00	-4.975423e+01	-5.319448e+00	0	0
277578	2.209000e+00	-3.647210e+01	-7.096095e+00	0	0
279531	2.209000e+00	-2.720234e+01	-7.058735e+00	0	0
281484	2.209000e+00	-1.197552e+01	-5.477083e+00	0	0
283438	2.209000e+00	-1.689957e+01	-2.603360e+00	0	0
285391	2.209000e+00	-3.196534e+01	1.384974e-01	0	0
287344	2.209000e+00	-3.326930e+01	-2.798399e-02	0	0
289297	2.209000e+00	-3.644146e+01	-2.658306e-02	0	0
291250	2.209000e+00	-2.829508e+01	1.379383e-01	0	0
293203	2.209000e+00	-2.433599e+01	2.680760e+00	0	0
295156	2.209000e+00	-3.614196e+01	5.610564e+00	0	0
297109	2.209000e+00	-4.640020e+01	6.993474e+00	0	0
299063	2.209000e+00	-5.883406e+01	7.433734e+00	0	0
301016	2.209000e+00	-6.505207e+01	7.583484e+00	0	0
302969	2.209000e+00	-8.749453e+01	7.407751e+00	0	0
304922	2.209000e+00	-1.094147e+02	6.917390e+00	0	0
306875	2.209000e+00	-1.330399e+02	6.114768e+00	0	0
308828	2.209000e+00	-1.480494e+02	4.988588e+00	0	0
310781	2.209000e+00	-1.575305e+02	3.004697e+00	0	0
312734	2.209000e+00	-1.562077e+02	3.867780e-01	0	0
314688	2.209000e+00	-1.658742e+02	3.983687e-03	0	0
316641	2.209000e+00	-1.927402e+02	-5.084848e-03	0	0
318594	2.209000e+00	-2.086402e+02	1.635795e-02	0	0
320547	2.209000e+00	-2.369246e+02	-6.250062e-02	0	0
322500	2.209000e+00	-2.561165e+02	-1.623476e+00	0	0
324453	2.209000e+00	-2.654642e+02	-4.483652e+00	0	0
326406	2.209000e+00	-2.833398e+02	-6.363320e+00	0	0
328359	2.209000e+00	-2.837637e+02	-7.125576e+00	0	0
330313	2.209000e+00	-2.665127e+02	-6.369464e+00	0	0
332266	2.209000e+00	-2.694550e+02	-4.095393e+00	0	0
334219	2.209000e+00	-2.604067e+02	-9.879843e-01	0	0
336172	2.209000e+00	-2.552651e+02	2.836106e-02	0	0
338125	2.209000e+00	-2.729541e+02	6.987936e-03	0	0
340078	2.209000e+00	-2.860081e+02	-5.632560e-02	0	0
342031	2.208882e+00	-2.878025e+02	2.233493e-01	0	0
343984	2.208118e+00	-2.987329e+02	3.416291e+00	0	0
345938	2.209000e+00	-3.015787e+02	5.506145e+00	0	0
347891	2.209000e+00	-3.008070e+02	6.187175e+00	0	0
349844	2.208882e+00	-2.955531e+02	5.018320e+00	0	0
351797	2.208000e+00	-2.809720e+02	2.239917e+00	0	0
353750	2.208000e+00	-2.718176e+02	-1.172981e-01	0	0
355703	2.208000e+00	-2.697275e+02	2.173589e-02	0	0
357656	2.208000e+00	-2.811839e+02	2.994395e-02	0	0
359609	2.208000e+00	-2.807213e+02	-5.063381e-01	0	0
361563	2.208000e+00	-2.963077e+02	-3.496524e+00	0	0
363516	2.208000e+00	-3.065305e+02	-4.456822e+00	0	0
365469	2.208000e+00	-3.185081e+02	-3.796505e+00	0	0
367422	2.208000e+00	-3.104465e+02	-1.582530e+00	0	0
369375	2.208000e+00	-3.070208e+02	8.040169e-02	0	0
371328	2.208000e+00	-2.977161e+02	-1.683214e-02	0	0
373281	2.208000e+00	-2.875240e+02	-1.308491e-02	0	0
375234	2.208000e+00	-2.953555e+02	7.099684e-02	0	0
377188	2.208000e+00	-2.885249e+02	1.225474e+00	0	0
379141	2.208000e+00	-2.913772e+02	2.001497e+00	0	0
381094	2.208000e+00	-2.990231e+02	1.166563e+00	0	0
383047	2.208000e+00	-3.099149e+02	-6.805985e-02	0	0
385000	2.208000e+00	-3.181430e+02	1.794557e-02	0	0
386953	2.208000e+00	-3.164929e+02	-3.714959e-03	0	0
388906	2.208000e+00	-3.114345e+02	-3.088370e-03	0	0
390859	2.208000e+00	-2.999364e+02	1.607151e-02	0	0
392813	2.208000e+00	-2.904141e+02	-6.270035e-02	0	0
394766	2.208000e+00	-2.776113e+02	-7.307662e-01	0	0
396719	2.208000e+00	-2.933874e+02	-4.704828e-01	0	0
398672	2.208000e+00	-3.012896e+02	2.758830e-02	0	0
400625	2.208000e+00	-3.408405e+02	-7.372340e-03	0	0
402578	2.208000e+00	-3.770232e+02	1.898112e-03	0	0
404531	2.208000e+00	-3.876663e+02	-2.192754e-04	0	0
406484	2.208000e+00	-3.823540e+02	-1.021400e-03	0	0
408438	2.208000e+00	-3.353323e+02	4.325979e-03	0	0
410391	2.208000e+00	-2.481241e+02	-1.627999e-02	0	0
412344	2.208000e+00	-1.561097e+02	6.214696e-02	0	0
414297	2.208000e+00	-4.647466e+01	8.306766e-01	0	0
416250	2.208000e+00	6.444902e+01	1.003882e+00	0	0
418203	2.208000e+00	2.054238e+02	5.985388e-01	0	0
420156	2.208000e+00	4.479655e+02	-3.610943e-02	0	0
422109	2.208000e+00	7.110795e+02	9.141320e-03	0	0
424063	2.208000e+00	9.426068e+02	-4.499929e-04	0	0
426016	2.208000e+00	1.194813e+03	-7.372262e-03	0	0
427969	2.208000e+00	1.459237e+03	2.994391e-02	0	0
429922	2.208000e+00	1.669257e+03	-1.150370e-01	0	0
431875	2.208000e+00	1.720070e+03	-1.609512e+00	0	0
433828	2.207878e+00	1.597728e+03	-2.171242e+00	0	0
435781	2.207000e+00	1.392934e+03	-1.526861e+00	0	0
437734	2.207000e+00	1.051216e+03	-4.938550e-01	0	0
439688	2.207000e+00	8.309692e+02	-8.747473e-01	0	0
441641	2.207000e+00	5.910353e+02	-1.089053e+00	0	0
443594	2.207000e+00	4.166760e+02	-1.334252e+00	0	0
445547	2.207000e+00	1.803817e+02	-1.389867e+00	0	0
447500	2.207000e+00	-1.590832e+02	3.148998e-02	0	0
449453	2.207000e+00	-3.138920e+02	1.697516e+00	0	0
451406	2.207000e+00	-3.822182e+02	1.522035e+00	0	0
453359	2.207000e+00	-4.111937e+02	-5.115102e-01	0	0
455313	2.207000e+00	-3.958971e+02	-1.724062e+00	0	0
457266	2.207000e+00	-3.592308e+02	-1.595359e+00	0	0
459219	2.207000e+00	-3.462859e+02	-1.450039e+00	0	0
461172	2.207000e+00	-3.193815e+02	-1.576868e+00	0	0
463125	2.207000e+00	-2.824676e+02	-4.005966e+00	0	0
465078	2.207000e+00	-2.546209e+02	-4.928653e+00	0	0
467031	2.207000e+00	-2.356813e+02	-4.080840e+00	0	0
468984	2.207000e+00	-2.154301e+02	-1.552389e+00	0	0
470938	2.207000e+00	-2.015310e+02	-3.023656e-01	0	0
472891	2.207000e+00	-1.925177e+02	-8.599392e-02	0	0
474844	2.207000e+00	-2.029231e+02	1.155971e-01	0	0
476797	2.207000e+00	-2.075928e+02	3.566131e-01	0	0
478750	2.207000e+00	-2.168672e+02	2.373087e+00	0	0
480703	2.207000e+00	-2.218565e+02	3.673816e+00	0	0
482656	2.207000e+00	-2.437400e+02	3.739604e+00	0	0
484609	2.207000e+00	-2.377710e+02	2.428829e+00	0	0
486563	2.207000e+00	-2.350534e+02	2.730458e-01	0	0
488516	2.207000e+00	-2.282508e+02	2.986395e-01	0	0
490469	2.207000e+00	-2.170762e+02	1.267637e-01	0	0
492422	2.207000e+00	-2.075095e+02	7.275934e-02	0	0
494375	2.207000e+00	-2.073332e+02	-1.172891e-01	0	0
496328	2.207000e+00	-2.083590e+02	-1.634753e+00	0	0
498281	2.207000e+00	-2.149086e+02	-2.371276e+00	0	0
500234	2.207000e+00	-2.193576e+02	-1.607471e+00	0	0
502188	2.207000e+00	-2.246304e+02	-4.302633e-03	0	0
504141	2.207000e+00	-2.272387e+02	1.531454e-01	0	0
506094	2.207000e+00	-2.264694e+02	8.069270e-01	0	0
508047	2.207000e+00	-2.214102e+02	1.428631e+00	0	0
510000	2.207000e+00	-2.090703e+02	2.077121e+00	0	0
511953	2.207000e+00	-1.903080e+02	2.792709e+00	0	0
513906	2.207000e+00	-1.852174e+02	3.734230e+00	0	0
515859	2.207000e+00	-1.817910e+02	3.649130e+00	0	0
517813	2.207000e+00	-1.913585e+02	2.761871e+00	0	0
519766	2.207000e+00	-1.827581e+02	2.688400e+00	0	0
521719	2.207000e+00	-1.827569e+02	2.525926e+00	0	0
523672	2.207000e+00	-1.988007e+02	2.370427e+00	0	0
525625	2.206874e+00	-1.919053e+02	2.228987e+00	0	0
527578	2.206000e+00	-1.901481e+02	1.996184e+00	0	0
529531	2.206126e+00	-1.815562e+02	1.112603e+00	0	0
531484	2.206874e+00	-1.715523e+02	9.451073e-01	0	0
533438	2.206000e+00	-1.546468e+02	1.409659e+00	0	0
535391	2.206000e+00	-1.471716e+02	5.879684e-01	0	0
537344	2.206000e+00	-1.510694e+02	-4.526050e-01	0	0
539297	2.206000e+00	-1.507007e+02	-1.881875e+00	0	0
541250	2.206000e+00	-1.557081e+02	-2.761726e+00	0	0
543203	2.206000e+00	-1.636314e+02	-7.131159e-01	0	0
545156	2.206000e+00	-1.639105e+02	-2.455332e-02	0	0
547109	2.206000e+00	-1.606014e+02	-6.399827e-01	0	0
549063	2.206000e+00	-1.456135e+02	-2.475258e+00	0	0
551016	2.206000e+00	-1.476577e+02	1.258444e-01	0	0
552969	2.206000e+00	-1.299724e+02	5.345998e+00	0	0
554922	2.206000e+00	-1.244342e+02	-6.077537e+00	0	0
556875	2.206000e+00	-1.256543e+02	-1.512041e+01	0	0
558828	2.206000e+00	-1.298452e+02	-1.449705e+01	0	0
560781	2.206000e+00	-1.333648e+02	-4.331910e+00	0	0
562734	2.206000e+00	-1.399355e+02	1.229571e+01	0	0
564688	2.206000e+00	-1.381992e+02	2.732811e+01	0	0
566641	2.206000e+00	-1.351940e+02	4.509588e+01	0	0
568594	2.206000e+00	-1.292295e+02	6.612309e+01	0	0
570547	2.206000e+00	-1.146294e+02	5.692411e+01	0	0
572500	2.206000e+00	-1.005608e+02	1.390710e+01	0	0
574453	2.206000e+00	-8.912635e+01	-3.794216e+01	0	0
576406	2.206000e+00	-8.909134e+01	-9.619522e+01	0	0
578359	2.206000e+00	-9.166041e+01	-1.197839e+02	0	0
580313	2.206000e+00	-9.455199e+01	-9.702630e+01	0	0
582266	2.206000e+00	-1.013296e+02	-5.111960e+01	0	0
584219	2.206000e+00	-9.740768e+01	-1.215043e+01	0	0
586172	2.206000e+00	-9.710907e+01	3.077327e+01	0	0
588125	2.206000e+00	-9.133063e+01	4.029398e+01	0	0
590078	2.206000e+00	-7.191340e+01	3.155731e+01	0	0
592031	2.206000e+00	-5.847846e+01	1.368475e+01	0	0
593984	2.206000e+00	-4.813559e+01	1.208725e+01	0	0
595938	2.206000e+00	-4.519262e+01	-1.913818e+00	0	0
597891	2.206000e+00	-4.142423e+01	-7.434467e+00	0	0
599844	2.206000e+00	-4.172334e+01	-6.725521e+00	0	0
601797	2.206000e+00	-4.577202e+01	-2.248024e+00	0	0
603750	2.206000e+00	-4.088217e+01	2.209963e+00	0	0
605703	2.206000e+00	-4.217046e+01	-6.025933e-01	0	0
607656	2.206000e+00	-3.767997e+01	2.167265e+00	0	0
609609	2.205871e+00	-2.830468e+01	3.154316e+00	0	0
611563	2.205130e+00	-1.741278e+01	3.632760e+00	0	0
613516	2.205870e+00	3.252066e+00	3.175441e+00	0	0
615469	2.205000e+00	8.306085e+00	1.997560e+00	0	0
617422	2.205130e+00	1.394506e+01	2.724880e-02	0	0
619375	2.206000e+00	1.329994e+01	-2.173302e+00	0	0
621328	2.205870e+00	1.942769e+01	4.914467e-03	0	0
623281	2.205000e+00	2.141053e+01	5.229614e+00	0	0
625234	2.205000e+00	3.059793e+01	5.884355e+00	0	0
627188	2.205000e+00	4.176338e+01	6.753916e-01	0	0
629141	2.205000e+00	5.234664e+01	-5.737657e+00	0	0
631094	2.205000e+00	6.642598e+01	-5.840213e+00	0	0
633047	2.205000e+00	9.469623e+01	-6.514927e+00	0	0
635000	2.205000e+00	1.042972e+02	-7.122033e+00	0	0
636953	2.205000e+00	1.110539e+02	-8.129893e+00	0	0
638906	2.205000e+00	1.212052e+02	-8.926097e+00	0	0
640859	2.205000e+00	1.253225e+02	-3.320639e+00	0	0
642813	2.205000e+00	1.322882e+02	1.326858e+01	0	0
644766	2.205000e+00	1.301115e+02	3.494315e+01	0	0
646719	2.205000e+00	1.500358e+02	4.661485e+01	0	0
648672	2.205000e+00	1.631187e+02	7.135576e+01	0	0
650625	2.205000e+00	1.915603e+02	6.604736e+01	0	0
652578	2.205000e+00	2.137480e+02	1.252981e+01	0	0
654531	2.205000e+00	2.244265e+02	-4.589525e+01	0	0
656484	2.205000e+00	2.363783e+02	-1.079694e+02	0	0
658438	2.205000e+00	2.479052e+02	-1.356729e+02	0	0
660391	2.205000e+00	2.539585e+02	-1.084636e+02	0	0
662344	2.205000e+00	2.655270e+02	-5.066753e+01	0	0
664297	2.205000e+00	2.731631e+02	-1.471501e+00	0	0
666250	2.205000e+00	2.787293e+02	4.436699e+01	0	0
668203	2.205000e+00	2.886751e+02	4.557042e+01	0	0
670156	2.205000e+00	3.154610e+02	2.843376e+01	0	0
672109	2.205000e+00	3.443156e+02	1.978069e+01	0	0
674063	2.205000e+00	3.602499e+02	1.013496e+01	0	0
676016	2.205000e+00	3.784126e+02	2.114017e+00	0	0
677969	2.205000e+00	3.701898e+02	3.367964e+00	0	0
679922	2.205000e+00	3.824139e+02	6.487476e+00	0	0
681875	2.205000e+00	3.906667e+02	3.272738e+00	0	0
683828	2.205000e+00	3.886313e+02	2.288741e+00	0	0
685781	2.205000e+00	3.934212e+02	3.419770e+00	0	0
687734	2.205000e+00	4.159225e+02	1.321392e+00	0	0
689688	2.205000e+00	4.124872e+02	-1.202260e+00	0	0
691641	2.205000e+00	4.249766e+02	-1.244662e+00	0	0
693594	2.204867e+00	4.379910e+02	-1.400674e+00	0	0
695547	2.204133e+00	4.240782e+02	-1.522086e+00	0	0
697500	2.205000e+00	4.072369e+02	-1.661162e+00	0	0
699453	2.205000e+00	3.877756e+02	-1.797272e+00	0	0
701406	2.205000e+00	3.620221e+02	-1.942389e+00	0	0
703359	2.204867e+00	3.332360e+02	-2.069772e+00	0	0
705313	2.204000e+00	3.064427e+02	-2.172838e+00	0	0
707266	2.204000e+00	2.788349e+02	-2.245127e+00	0	0
709219	2.204000e+00	2.558857e+02	-2.279256e+00	0	0
711172	2.204000e+00	2.399266e+02	-2.270146e+00	0	0
713125	2.204000e+00	2.274344e+02	-2.238523e+00	0	0
715078	2.204000e+00	1.973409e+02	-2.205078e+00	0	0
717031	2.204000e+00	1.657109e+02	-2.168637e+00	0	0
718984	2.204000e+00	1.247508e+02	-2.130545e+00	0	0
720938	2.204000e+00	9.036782e+01	-2.089173e+00	0	0
722891	2.204000e+00	6.030408e+01	-2.052256e+00	0	0
724844	2.204000e+00	3.270989e+01	-1.992766e+00	0	0
726797	2.204000e+00	1.819073e+00	-1.756004e+00	0	0
728750	2.204000e+00	-1.141862e+01	-1.494674e+00	0	0
730703	2.204000e+00	-2.348789e+01	-1.234732e+00	0	0
732656	2.204000e+00	-3.039627e+01	-9.775094e-01	0	0
734609	2.204000e+00	-4.660730e+01	-7.231825e-01	0	0
736563	2.204000e+00	-6.263225e+01	-4.735345e-01	0	0
738516	2.204000e+00	-8.367503e+01	-2.249390e-01	0	0
740469	2.204000e+00	-1.088846e+02	4.839908e-03	0	0
742422	2.204000e+00	-1.255382e+02	9.049443e-02	0	0
744375	2.204000e+00	-1.423597e+02	8.806319e-02	0	0
746328	2.204000e+00	-1.523757e+02	9.124780e-02	0	0
748281	2.204000e+00	-1.516104e+02	9.316976e-02	0	0
750234	2.204000e+00	-1.490848e+02	9.452984e-02	0	0
752188	2.204000e+00	-1.517649e+02	9.937631e-02	0	0
754141	2.204000e+00	-1.499926e+02	6.726944e-02	0	0
756094	2.204000e+00	-1.515935e+02	-1.205138e-01	0	0
758047	2.204000e+00	-1.599971e+02	-2.899304e-01	0	0
760000	2.204000e+00	-1.731636e+02	-4.582829e-01	0	0
761953	2.204000e+00	-1.818749e+02	-6.206507e-01	0	0
763906	2.204000e+00	-1.826771e+02	-7.780689e-01	0	0
765859	2.204000e+00	-1.900772e+02	-9.299763e-01	0	0
767813	2.204000e+00	-1.884983e+02	-1.076313e+00	0	0
769766	2.204000e+00	-1.859014e+02	-1.216682e+00	0	0
771719	2.204000e+00	-1.808147e+02	-1.350941e+00	0	0
773672	2.204000e+00	-1.704024e+02	-1.478866e+00	0	0
775625	2.204000e+00	-1.711210e+02	-1.600234e+00	0	0
777578	2.204000e+00	-1.760974e+02	-1.714819e+00	0	0
779531	2.204000e+00	-1.821940e+02	-1.822400e+00	0	0
781484	2.204000e+00	-1.902648e+02	-1.922751e+00	0	0
783438	2.204000e+00	-2.062498e+02	-2.015696e+00	0	0
785391	2.204000e+00	-2.052293e+02	-2.100914e+00	0	0
787344	2.203863e+00	-2.070281e+02	-2.178233e+00	0	0
789297	2.203000e+00	-2.069032e+02	-2.247428e+00	0	0
791250	2.203000e+00	-1.944228e+02	-2.308275e+00	0	0
793203	2.203000e+00	-1.860135e+02	-2.360553e+00	0	0
795156	2.203137e+00	-1.834291e+02	-2.404029e+00	0	0
797109	2.204000e+00	-1.954567e+02	-2.438514e+00	0	0
799063	2.203862e+00	-2.014411e+02	-2.464240e+00	0	0
801016	2.203000e+00	-2.062288e+02	-2.481263e+00	0	0
802969	2.203138e+00	-2.119893e+02	-2.489475e+00	0	0
804922	2.203862e+00	-2.217588e+02	-2.490540e+00	0	0
806875	2.203000e+00	-2.169463e+02	-2.485844e+00	0	0
808828	2.203000e+00	-2.177531e+02	-2.476901e+00	0	0
810781	2.203000e+00	-2.052777e+02	-2.466110e+00	0	0
812734	2.203000e+00	-1.913542e+02	-2.454140e+00	0	0
814688	2.203000e+00	-1.889764e+02	-2.440984e+00	0	0
816641	2.203000e+00	-1.880238e+02	-2.426690e+00	0	0
818594	2.203000e+00	-1.970294e+02	-2.411275e+00	0	0
820547	2.203000e+00	-2.029256e+02	-2.394764e+00	0	0
822500	2.203000e+00	-2.142267e+02	-2.377188e+00	0	0
824453	2.203000e+00	-2.140484e+02	-2.358554e+00	0	0
826406	2.203000e+00	-2.151913e+02	-2.338960e+00	0	0
828359	2.203000e+00	-2.029745e+02	-2.318160e+00	0	0
830313	2.203000e+00	-1.976655e+02	-2.297188e+00	0	0
832266	2.203000e+00	-1.831736e+02	-2.272282e+00	0	0
834219	2.203000e+00	-1.799227e+02	-2.257682e+00	0	0
836172	2.203000e+00	-1.824726e+02	-2.200318e+00	0	0
838125	2.203000e+00	-1.963918e+02	-2.301155e+00	0	0
840078	2.203000e+00	-2.032607e+02	-3.289633e+00	0	0
842031	2.203000e+00	-2.125644e+02	-3.247181e+00	0	0
843984	2.203000e+00	-2.115499e+02	-2.475916e+00	0	0
845938	2.203000e+00	-2.116793e+02	-2.074215e+00	0	0
847891	2.203000e+00	-2.085393e+02	-2.067355e+00	0	0
849844	2.203000e+00	-1.998726e+02	-2.034606e+00	0	0
851797	2.203000e+00	-1.856452e+02	-1.993557e+00	0	0
853750	2.203000e+00	-1.742216e+02	-2.007536e+00	0	0
855703	2.203000e+00	-1.778741e+02	-1.801520e+00	0	0
857656	2.203000e+00	-1.823757e+02	-1.699263e-01	0	0
859609	2.203000e+00	-1.898474e+02	6.260277e-01	0	0
861563	2.203000e+00	-1.924034e+02	-1.683062e-01	0	0
863516	2.203000e+00	-2.002930e+02	-1.781541e+00	0	0
865469	2.203000e+00	-2.027052e+02	-1.566416e+00	0	0
867422	2.203000e+00	-2.010449e+02	-1.534259e+00	0	0
869375	2.203000e+00	-1.883328e+02	-1.440078e+00	0	0
871328	2.203000e+00	-1.829568e+02	-1.410140e+00	0	0
873281	2.203000e+00	-1.688785e+02	-2.292291e+00	0	0
875234	2.203000e+00	-1.661600e+02	-4.087298e+00	0	0
877188	2.203000e+00	-1.729450e+02	-4.467200e+00	0	0
879141	2.203000e+00	-1.749236e+02	-3.228907e+00	0	0
881094	2.203000e+00	-1.735431e+02	-9.544997e-01	0	0
883047	2.203000e+00	-1.829063e+02	-9.627884e-01	0	0
885000	2.203000e+00	-1.880327e+02	-8.253304e-01	0	0
886953	2.202858e+00	-1.995295e+02	-8.452884e-01	0	0
888906	2.202142e+00	-1.914978e+02	-4.460421e-01	0	0
890859	2.202858e+00	-1.773703e+02	2.263254e+00	0	0
892813	2.202142e+00	-1.628319e+02	3.053678e+00	0	0
894766	2.202858e+00	-1.571106e+02	2.048598e+00	0	0
896719	2.202000e+00	-1.673243e+02	-1.823187e-01	0	0
898672	2.202000e+00	-1.726331e+02	-3.200824e-01	0	0
900625	2.202000e+00	-1.806970e+02	-2.702724e-01	0	0
902578	2.202000e+00	-1.837914e+02	-1.641323e-01	0	0
904531	2.202000e+00	-1.897659e+02	-7.552542e-01	0	0
906484	2.202000e+00	-1.899735e+02	-3.172360e+00	0	0
908438	2.202000e+00	-1.903479e+02	-3.728926e+00	0	0
910391	2.202000e+00	-1.800184e+02	-2.825920e+00	0	0
912344	2.202000e+00	-1.687111e+02	-9.573126e-01	0	0
914297	2.202000e+00	-1.653269e+02	3.013101e-01	0	0
916250	2.202000e+00	-1.685809e+02	2.818374e-01	0	0
918203	2.202000e+00	-1.691417e+02	3.804586e-01	0	0
920156	2.202000e+00	-1.763495e+02	4.105092e-01	0	0
922109	2.202000e+00	-1.860498e+02	5.962877e-01	0	0
924063	2.202000e+00	-1.832252e+02	2.140959e+00	0	0
926016	2.202000e+00	-1.898574e+02	4.145780e+00	0	0
927969	2.202000e+00	-1.906523e+02	5.119932e+00	0	0
929922	2.202000e+00	-1.853805e+02	4.953157e+00	0	0
931875	2.202000e+00	-1.768367e+02	3.167999e+00	0	0
933828	2.202000e+00	-1.603387e+02	7.175952e-01	0	0
935781	2.202000e+00	-1.624051e+02	9.793267e-01	0	0
937734	2.202000e+00	-1.725356e+02	1.011400e+00	0	0
939688	2.202000e+00	-1.760283e+02	9.711374e-01	0	0
941641	2.202000e+00	-1.802704e+02	-6.397792e-01	0	0
943594	2.202000e+00	-1.821607e+02	-3.102906e+00	0	0
945547	2.202000e+00	-1.993409e+02	-3.940083e+00	0	0
947500	2.202000e+00	-1.992921e+02	-3.254910e+00	0	0
949453	2.202000e+00	-1.875894e+02	-8.941516e-01	0	0
951406	2.202000e+00	-1.739722e+02	1.529280e+00	0	0
953359	2.202000e+00	-1.615751e+02	1.413612e+00	0	0
955313	2.202000e+00	-1.602459e+02	1.419072e+00	0	0
957266	2.202000e+00	-1.746477e+02	1.816535e+00	0	0
959219	2.202000e+00	-1.766713e+02	5.159875e+00	0	0
961172	2.202000e+00	-1.879947e+02	7.091266e+00	0	0
963125	2.202000e+00	-1.995302e+02	6.717955e+00	0	0
965078	2.202000e+00	-1.987206e+02	4.328520e+00	0	0
967031	2.202000e+00	-2.044244e+02	1.603894e+00	0	0
968984	2.202000e+00	-2.013540e+02	1.876612e+00	0	0
970938	2.202000e+00	-1.889894e+02	1.933566e+00	0	0
972891	2.202000e+00	-1.760423e+02	1.195826e+00	0	0
974844	2.202000e+00	-1.779623e+02	-2.100613e+00	0	0
976797	2.201854e+00	-1.801338e+02	-2.907927e+00	0	0
978750	2.201000e+00	-1.863805e+02	-2.365637e+00	0	0
980703	2.201000e+00	-1.868857e+02	-1.277343e+00	0	0
982656	2.201000e+00	-1.969268e+02	3.929711e-01	0	0
984609	2.201000e+00	-1.978272e+02	2.235674e+00	0	0
986563	2.201000e+00	-2.001603e+02	2.537962e+00	0	0
988516	2.201000e+00	-1.959428e+02	2.632783e+00	0	0
990469	2.201000e+00	-1.849844e+02	2.678789e+00	0	0
992422	2.201000e+00	-1.716789e+02	2.706907e+00	0	0
994375	2.201000e+00	-1.722274e+02	2.743118e+00	0	0
996328	2.201000e+00	-1.700954e+02	3.675836e+00	0	0
998281	2.201000e+00	-1.726107e+02	6.278256e+00	0	0
1000234	2.201000e+00	-1.793089e+02	7.424791e+00	0	0
1002188	2.201000e+00	-1.903322e+02	7.110381e+00	0	0
1004141	2.201000e+00	-1.949443e+02	5.405016e+00	0	0
1006094	2.201000e+00	-2.008293e+02	3.055371e+00	0	0
1008047	2.201000e+00	-2.005482e+02	2.958598e+00	0	0
1010000	2.201000e+00	-1.920518e+02	2.945249e+00	0	0
1011953	2.201000e+00	-1.853505e+02	3.047992e+00	0	0
1013906	2.201000e+00	-1.749022e+02	2.805977e+00	0	0
1015859	2.201000e+00	-1.767972e+02	3.732090e-01	0	0
1017813	2.201000e+00	-1.807187e+02	-1.427114e+00	0	0
1019766	2.201000e+00	-1.825754e+02	-1.964861e+00	0	0
1021719	2.201000e+00	-1.851225e+02	-9.248689e-01	0	0
1023672	2.201000e+00	-1.944485e+02	1.125257e+00	0	0
1025625	2.201000e+00	-2.000847e+02	2.101783e+00	0	0
1027578	2.201000e+00	-2.019787e+02	1.787744e+00	0	0
1029531	2.201000e+00	-1.900518e+02	1.574126e+00	0	0
1031484	2.201000e+00	-1.791829e+02	1.358516e+00	0	0
1033438	2.201000e+00	-1.696273e+02	2.111119e+00	0	0
1035391	2.201000e+00	-1.723704e+02	4.389566e+00	0	0
1037344	2.201000e+00	-1.748155e+02	5.291824e+00	0	0
1039297	2.201000e+00	-1.759497e+02	4.835844e+00	0	0
1041250	2.201000e+00	-1.856412e+02	3.019515e+00	0	0
1043203	2.201000e+00	-1.947363e+02	6.446630e-01	0	0
1045156	2.201000e+00	-1.978124e+02	-1.809739e-01	0	0
1047109	2.201000e+00	-1.989299e+02	-3.455212e-01	0	0
1049063	2.201000e+00	-1.725939e+02	-5.289153e-01	0	0
1051016	2.201000e+00	-1.502810e+02	-5.668635e-01	0	0
1052969	2.201000e+00	-1.293292e+02	-6.889253e-01	0	0
1054922	2.201000e+00	-1.071905e+02	-1.682196e+00	0	0
1056875	2.201000e+00	-9.141440e+01	-3.108023e+00	0	0
1058828	2.201000e+00	-5.936799e+01	-2.906457e+00	0	0
1060781	2.200850e+00	-5.408157e+01	-1.471658e+00	0	0
1062734	2.200150e+00	-5.194951e+01	-7.826631e-01	0	0
1064688	2.201000e+00	-4.631094e+01	-8.448277e-01	0	0
1066641	2.201000e+00	-4.617508e+01	-8.340673e-01	0	0
1068594	2.200849e+00	-5.033214e+01	-8.543763e-01	0	0
1070547	2.200000e+00	-4.088317e+01	-7.855360e-01	0	0
1072500	2.200000e+00	-2.004850e+01	-2.394953e-01	0	0
1074453	2.200000e+00	-1.423700e+01	-2.801552e-01	0	0
1076406	2.200000e+00	-1.594064e+00	-9.231607e-01	0	0
1078359	2.200000e+00	1.417854e+00	-8.907448e-01	0	0
1080313	2.200000e+00	4.743534e+00	-9.378774e-01	0	0
1082266	2.200000e+00	6.474491e+00	-9.872301e-01	0	0
1084219	2.200000e+00	-1.057398e+00	-9.975652e-01	0	0
1086172	2.200000e+00	2.709884e-01	-1.217330e+00	0	0
1088125	2.200000e+00	9.482276e+00	-2.090161e+00	0	0
1090078	2.200000e+00	2.899963e+01	-9.461771e-01	0	0
1092031	2.200000e+00	6.030167e+01	5.510666e-01	0	0
1093984	2.200000e+00	8.323783e+01	1.046489e+00	0	0
1095938	2.200000e+00	9.618319e+01	1.488955e+00	0	0
1097891	2.200000e+00	8.103944e+01	1.682676e+00	0	0
1099844	2.200000e+00	6.455832e+01	1.897765e+00	0	0
1101797	2.200000e+00	5.543020e+01	3.092531e+00	0	0
1103750	2.200000e+00	4.333644e+01	2.805232e+00	0	0
1105703	2.200000e+00	2.684373e+01	5.553897e-01	0	0
1107656	2.200000e+00	2.857381e+01	-2.688194e-01	0	0
1109609	2.200000e+00	3.288542e+01	7.354098e-01	0	0
1111563	2.200000e+00	3.409121e+01	1.852198e+00	0	0
1113516	2.200000e+00	4.601608e+01	2.717711e+00	0	0
1115469	2.200000e+00	3.136219e+01	8.333872e-01	0	0
1117422	2.200000e+00	7.796498e+00	-1.370425e+00	0	0
1119375	2.200000e+00	-8.907320e+00	-4.191373e+00	0	0
1121328	2.200000e+00	-3.037410e+01	-7.347595e+00	0	0
1123281	2.200000e+00	-6.231310e+01	-8.181467e+00	0	0
1125234	2.200000e+00	-8.273690e+01	-8.958708e+00	0	0
1127188	2.200000e+00	-1.001016e+02	-9.608328e+00	0	0
1129141	2.200000e+00	-1.097163e+02	-9.587261e+00	0	0
1131094	2.200000e+00	-1.173200e+02	-6.952942e+00	0	0
1133047	2.200000e+00	-1.147141e+02	-6.595208e+00	0	0
1135000	2.200000e+00	-1.321705e+02	-5.443327e+00	0	0
1136953	2.200000e+00	-1.518253e+02	3.239618e+00	0	0
1138906	2.200000e+00	-1.589388e+02	-1.285212e+00	0	0
1140859	2.200000e+00	-1.689096e+02	2.654070e+00	0	0
1142813	2.200000e+00	-1.866580e+02	1.610934e+01	0	0
1144766	2.200000e+00	-2.006589e+02	3.161590e+01	0	0
1146719	2.200000e+00	-2.016444e+02	3.988836e+01	0	0
1148672	2.200000e+00	-1.972911e+02	6.162501e+01	0	0
1150625	2.199846e+00	-1.863074e+02	5.418810e+01	0	0
1152578	2.199154e+00	-1.793283e+02	1.416304e+01	0	0
1154531	2.199846e+00	-1.803132e+02	-4.847689e+01	0	0
1156484	2.199154e+00	-1.932590e+02	-1.112320e+02	0	0
1158438	2.200000e+00	-2.029495e+02	-1.339235e+02	0	0
1160391	2.200000e+00	-2.077213e+02	-9.765190e+01	0	0
1162344	2.200000e+00	-2.170993e+02	-3.458297e+01	0	0
1164297	2.200000e+00	-2.235974e+02	1.776537e+01	0	0
1166250	2.200000e+00	-2.217136e+02	6.101640e+01	0	0
1168203	2.199845e+00	-2.187760e+02	5.381222e+01	0	0
1170156	2.199000e+00	-2.136700e+02	3.113951e+01	0	0
1172109	2.199000e+00	-2.021568e+02	1.848651e+01	0	0
1174063	2.199000e+00	-1.973480e+02	-5.298073e+00	0	0
1176016	2.199000e+00	-2.078853e+02	-1.776989e+01	0	0
1177969	2.199000e+00	-2.163479e+02	-1.904677e+01	0	0
1179922	2.199000e+00	-2.207780e+02	-1.534164e+01	0	0
1181875	2.199000e+00	-2.288265e+02	-9.458269e+00	0	0
1183828	2.199000e+00	-2.352900e+02	-6.447579e-01	0	0
1185781	2.199000e+00	-2.436394e+02	1.185216e+00	0	0
1187734	2.199000e+00	-2.369871e+02	7.030445e-01	0	0
1189688	2.199000e+00	-2.280570e+02	5.497775e+00	0	0
1191641	2.199000e+00	-2.195708e+02	8.376702e+00	0	0
1193594	2.199000e+00	-2.004617e+02	1.014551e+01	0	0
1195547	2.199000e+00	-1.958368e+02	1.052683e+01	0	0
1197500	2.199000e+00	-2.051472e+02	9.514664e+00	0	0
1199453	2.199000e+00	-2.059206e+02	7.087306e+00	0	0
1201406	2.199000e+00	-2.144934e+02	3.916940e+00	0	0
1203359	2.199000e+00	-2.195828e+02	5.164964e-01	0	0
1205313	2.199000e+00	-2.245836e+02	-2.329701e-01	0	0
1207266	2.199000e+00	-2.296573e+02	5.965467e+00	0	0
1209219	2.199000e+00	-2.267085e+02	4.907327e+00	0	0
1211172	2.199000e+00	-2.347734e+02	-2.769986e+00	0	0
1213125	2.199000e+00	-2.576428e+02	-4.669774e+00	0	0
1215078	2.199000e+00	-2.727493e+02	-7.533321e+00	0	0
1217031	2.199000e+00	-2.756770e+02	-1.064067e+01	0	0
1218984	2.199000e+00	-2.503880e+02	-1.272589e+01	0	0
1220938	2.199000e+00	-1.982003e+02	-6.435395e+00	0	0
1222891	2.199000e+00	-1.230882e+02	9.425813e+00	0	0
1224844	2.199000e+00	-3.925524e+01	2.630300e+01	0	0
1226797	2.199000e+00	4.889923e+01	3.417618e+01	0	0
1228750	2.199000e+00	1.728257e+02	5.777667e+01	0	0
1230703	2.199000e+00	3.842069e+02	5.214878e+01	0	0
1232656	2.199000e+00	6.836285e+02	3.430274e-01	0	0
1234609	2.199000e+00	9.190897e+02	-5.483173e+01	0	0
1236563	2.199000e+00	1.176506e+03	-1.126636e+02	0	0
1238516	2.199000e+00	1.430328e+03	-1.375488e+02	0	0
1240469	2.199000e+00	1.651092e+03	-1.119089e+02	0	0
1242422	2.199000e+00	1.794446e+03	-5.962211e+01	0	0
1244375	2.199000e+00	1.753939e+03	-1.289169e+01	0	0
1246328	2.199000e+00	1.629199e+03	3.798045e+01	0	0
1248281	2.199000e+00	1.336516e+03	5.502597e+01	0	0
1250234	2.199000e+00	1.003916e+03	4.660184e+01	0	0
1252188	2.199000e+00	8.138747e+02	2.575528e+01	0	0
1254141	2.198841e+00	6.249794e+02	1.178373e+01	0	0
1256094	2.198000e+00	4.246764e+02	-2.784444e+00	0	0
1258047	2.198000e+00	5.796397e+01	-3.768059e+00	0	0
1260000	2.198160e+00	-2.502291e+02	1.076928e+00	0	0
1261953	2.198840e+00	-3.336976e+02	7.840759e+00	0	0
1263906	2.198000e+00	-3.767238e+02	3.271317e+00	0	0
1265859	2.198000e+00	-3.580912e+02	-1.460348e+00	0	0
1267813	2.198000e+00	-3.206120e+02	-1.079702e+00	0	0
1269766	2.198000e+00	-2.828847e+02	-2.159393e+00	0	0
1271719	2.198000e+00	-2.286365e+02	-4.282454e+00	0	0
1273672	2.198000e+00	-1.782996e+02	-7.056604e+00	0	0
1275625	2.198000e+00	-1.520757e+02	-7.626236e+00	0	0
1277578	2.198000e+00	-1.362307e+02	-7.274426e+00	0	0
1279531	2.198000e+00	-1.302584e+02	-6.286487e+00	0	0
1281484	2.198000e+00	-1.302706e+02	-3.943769e+00	0	0
1283438	2.198000e+00	-1.431713e+02	-2.168540e+00	0	0
1285391	2.198000e+00	-1.515352e+02	9.451329e-01	0	0
1287344	2.198000e+00	-1.595278e+02	1.711601e+00	0	0
1289297	2.198000e+00	-1.497604e+02	8.221289e-01	0	0
1291250	2.198000e+00	-1.459441e+02	-4.734347e-02	0	0
1293203	2.198000e+00	-1.324641e+02	-7.975326e-01	0	0
1295156	2.198000e+00	-1.354409e+02	-1.408593e+00	0	0
1297109	2.198000e+00	-1.423118e+02	-1.573672e+00	0	0
1299063	2.198000e+00	-1.479765e+02	-9.077956e-01	0	0
1301016	2.198000e+00	-1.480762e+02	-6.483969e-01	0	0
1302969	2.198000e+00	-1.602795e+02	-6.159553e-01	0	0
1304922	2.198000e+00	-1.645494e+02	-8.542181e-01	0	0
1306875	2.198000e+00	-1.589422e+02	-1.174145e+00	0	0
1308828	2.198000e+00	-1.583118e+02	-8.000844e-01	0	0
1310781	2.198000e+00	-1.395849e+02	-1.998446e-01	0	0
1312734	2.198000e+00	-1.318832e+02	3.770098e-01	0	0
1314688	2.198000e+00	-1.248335e+02	9.468092e-01	0	0
1316641	2.198000e+00	-1.274651e+02	1.495554e+00	0	0
1318594	2.198000e+00	-1.342745e+02	2.050703e+00	0	0
1320547	2.198000e+00	-1.359555e+02	2.504299e+00	0	0
1322500	2.198000e+00	-1.458492e+02	2.445082e+00	0	0
1324453	2.198000e+00	-1.470158e+02	2.439098e+00	0	0
1326406	2.198000e+00	-1.422979e+02	2.374508e+00	0	0
1328359	2.198000e+00	-1.375526e+02	2.084819e+00	0	0
1330313	2.198000e+00	-1.288972e+02	1.830252e+00	0	0
1332266	2.198000e+00	-1.189138e+02	1.581591e+00	0	0
1334219	2.198000e+00	-1.091813e+02	1.353249e+00	0	0
1336172	2.198000e+00	-1.079549e+02	1.170981e+00	0	0
1338125	2.198000e+00	-1.100827e+02	9.997508e-01	0	0
1340078	2.198000e+00	-1.092597e+02	8.650957e-01	0	0
1342031	2.197837e+00	-1.158674e+02	9.286296e-01	0	0
1343984	2.197000e+00	-1.222613e+02	1.129099e+00	0	0
1345938	2.197164e+00	-1.253712e+02	1.303831e+00	0	0
1347891	2.197836e+00	-1.163608e+02	1.466603e+00	0	0
1349844	2.197164e+00	-9.955569e+01	1.611939e+00	0	0
1351797	2.197836e+00	-9.053732e+01	1.739002e+00	0	0
1353750	2.197000e+00	-7.743090e+01	1.847568e+00	0	0
1355703	2.197000e+00	-7.413925e+01	1.930007e+00	0	0
1357656	2.197000e+00	-8.211965e+01	1.931506e+00	0	0
1359609	2.197000e+00	-8.456296e+01	1.821012e+00	0	0
1361563	2.197000e+00	-8.746624e+01	1.613756e+00	0	0
1363516	2.197000e+00	-9.695832e+01	1.329464e+00	0	0
1365469	2.197000e+00	-9.556609e+01	9.560181e-01	0	0
1367422	2.197000e+00	-8.943867e+01	6.056969e-01	0	0
1369375	2.197000e+00	-7.688834e+01	7.080226e-01	0	0
1371328	2.197000e+00	-6.276595e+01	8.422879e-01	0	0
1373281	2.197000e+00	-4.861620e+01	9.781339e-01	0	0
1375234	2.197000e+00	-4.254907e+01	1.114319e+00	0	0
1377188	2.197000e+00	-4.200343e+01	1.236432e+00	0	0
1379141	2.197000e+00	-4.838234e+01	1.270168e+00	0	0
1381094	2.197000e+00	-4.929384e+01	1.276931e+00	0	0
1383047	2.197000e+00	-6.408930e+01	1.283975e+00	0	0
1385000	2.197000e+00	-7.218441e+01	1.288022e+00	0	0
1386953	2.197000e+00	-6.998439e+01	1.203438e+00	0	0
1388906	2.197000e+00	-6.542471e+01	9.469689e-01	0	0
1390859	2.197000e+00	-4.508171e+01	8.107116e-01	0	0
1392813	2.197000e+00	-2.795111e+01	1.346228e+00	0	0
1394766	2.197000e+00	-1.600885e+01	2.611236e+00	0	0
1396719	2.197000e+00	-1.408597e+01	2.673396e+00	0	0
1398672	2.197000e+00	-1.361214e+01	1.555891e+00	0	0
1400625	2.197000e+00	-1.646429e+01	3.457322e-01	0	0
1402578	2.197000e+00	-1.843423e+01	4.725942e-01	0	0
1404531	2.197000e+00	-1.337232e+01	4.897785e-01	0	0
1406484	2.197000e+00	-1.839184e+01	5.732887e-01	0	0
1408438	2.197000e+00	-2.207708e+00	6.764209e-01	0	0
1410391	2.197000e+00	8.244551e+00	8.098152e-01	0	0
1412344	2.197000e+00	2.053652e+01	9.770223e-01	0	0
1414297	2.197000e+00	3.470557e+01	1.152259e+00	0	0
1416250	2.197000e+00	3.668793e+01	1.193402e+00	0	0
1418203	2.197000e+00	3.634610e+01	1.174285e+00	0	0
1420156	2.197000e+00	3.676768e+01	1.150267e+00	0	0
1422109	2.197000e+00	3.756186e+01	1.153077e+00	0	0
1424063	2.197000e+00	3.969583e+01	1.041180e+00	0	0
1426016	2.197000e+00	4.533669e+01	-5.165631e-02	0	0
1427969	2.197000e+00	5.388590e+01	-1.851956e+00	0	0
1429922	2.196832e+00	7.273107e+01	-3.207451e+00	0	0
1431875	2.196168e+00	8.284879e+01	-2.907155e+00	0	0
1433828	2.197000e+00	1.061645e+02	-7.532658e-01	0	0
1435781	2.197000e+00	1.119216e+02	1.088880e+00	0	0
1437734	2.197000e+00	1.113896e+02	8.915455e-01	0	0
1439688	2.197000e+00	1.189253e+02	9.119219e-01	0	0
1441641	2.197000e+00	1.210043e+02	8.718478e-01	0	0
1443594	2.196832e+00	1.254777e+02	1.343775e+00	0	0
1445547	2.196168e+00	1.399523e+02	2.474745e+00	0	0
1447500	2.196832e+00	1.527149e+02	1.832243e+00	0	0
1449453	2.196000e+00	1.662360e+02	1.748956e+00	0	0
1451406	2.196000e+00	1.839969e+02	2.337420e+00	0	0
1453359	2.196000e+00	2.073841e+02	2.286057e+00	0	0
1455313	2.196000e+00	2.237625e+02	1.828597e+00	0	0
1457266	2.196000e+00	2.262204e+02	1.387700e+00	0	0
1459219	2.196000e+00	2.354186e+02	1.282409e+00	0	0
1461172	2.196000e+00	2.441934e+02	1.109254e+00	0	0
1463125	2.196000e+00	2.529503e+02	1.106584e+00	0	0
1465078	2.196000e+00	2.535137e+02	1.076784e+00	0	0
1467031	2.196000e+00	2.660775e+02	1.046470e+00	0	0
1468984	2.196000e+00	2.865115e+02	1.009611e+00	0	0
1470938	2.196000e+00	3.121460e+02	9.675595e-01	0	0
1472891	2.196000e+00	3.406279e+02	9.229795e-01	0	0
1474844	2.196000e+00	3.535109e+02	9.005365e-01	0	0
1476797	2.196000e+00	3.640592e+02	9.048141e-01	0	0
1478750	2.196000e+00	3.701532e+02	9.065737e-01	0	0
1480703	2.196000e+00	3.754173e+02	9.090033e-01	0	0
1482656	2.196000e+00	3.758866e+02	9.112484e-01	0	0
1484609	2.196000e+00	3.950087e+02	9.135380e-01	0	0
1486563	2.196000e+00	4.029474e+02	9.158119e-01	0	0
1488516	2.196000e+00	4.117794e+02	9.180841e-01	0	0
1490469	2.196000e+00	4.375238e+02	9.203516e-01	0	0
1492422	2.196000e+00	4.623187e+02	9.226151e-01	0	0
1494375	2.196000e+00	4.783731e+02	9.248752e-01	0	0
1496328	2.196000e+00	4.809508e+02	9.271290e-01	0	0
1498281	2.196000e+00	4.861304e+02	9.293870e-01	0	0
1500234	2.196000e+00	4.864798e+02	9.316103e-01	0	0
1502188	2.196000e+00	4.807459e+02	9.339454e-01	0	0
1504141	2.196000e+00	4.766283e+02	9.358465e-01	0	0
1506094	2.196000e+00	4.725102e+02	9.393438e-01	0	0
1508047	2.196000e+00	4.718241e+02	9.368632e-01	0	0
1510000	2.196000e+00	4.658147e+02	9.566769e-01	0	0
1511953	2.196000e+00	4.608557e+02	8.916947e-01	0	0
1513906	2.196000e+00	4.504647e+02	6.566488e-01	0	0
1515859	2.196000e+00	4.244845e+02	9.802981e-01	0	0
1517813	2.196000e+00	4.000862e+02	9.433920e-01	0	0
1519766	2.196000e+00	3.715476e+02	9.560959e-01	0	0
1521719	2.196000e+00	3.331256e+02	9.554837e-01	0	0
1523672	2.196000e+00	2.950603e+02	9.584343e-01	0	0
1525625	2.196000e+00	2.639891e+02	9.604247e-01	0	0
1527578	2.196000e+00	2.376047e+02	9.626668e-01	0	0
1529531	2.196000e+00	2.110725e+02	9.648358e-01	0	0
1531484	2.196000e+00	1.906425e+02	9.670188e-01	0	0
1533438	2.196000e+00	1.716181e+02	9.691935e-01	0	0
1535391	2.195827e+00	1.537196e+02	9.713639e-01	0	0
1537344	2.195173e+00	1.192530e+02	9.735295e-01	0	0
1539297	2.195827e+00	8.557162e+01	9.756905e-01	0	0
1541250	2.195000e+00	5.761701e+01	9.778470e-01	0	0
1543203	2.195000e+00	2.487031e+01	9.799990e-01	0	0
1545156	2.195000e+00	9.295370e+00	9.821462e-01	0	0
1547109	2.195000e+00	-1.477442e+01	9.842889e-01	0	0
1549063	2.195000e+00	-2.155217e+01	9.864280e-01	0	0
1551016	2.195000e+00	-2.853997e+01	9.885613e-01	0	0
1552969	2.195000e+00	-3.478499e+01	9.906898e-01	0	0
1554922	2.195000e+00	-4.376494e+01	9.928142e-01	0	0
1556875	2.195000e+00	-5.362006e+01	9.949314e-01	0	0
1558828	2.195000e+00	-6.065187e+01	9.970528e-01	0	0
1560781	2.195000e+00	-8.367814e+01	9.991358e-01	0	0
1562734	2.195000e+00	-9.815151e+01	1.001340e+00	0	0
1564688	2.195000e+00	-1.043778e+02	1.003045e+00	0	0
1566641	2.195000e+00	-1.156744e+02	9.989899e-01	0	0
1568594	2.195000e+00	-1.163137e+02	9.884355e-01	0	0
1570547	2.195000e+00	-1.086923e+02	9.784222e-01	0	0
1572500	2.195000e+00	-1.033187e+02	9.681739e-01	0	0
1574453	2.195000e+00	-1.021499e+02	9.579025e-01	0	0
1576406	2.195000e+00	-1.016602e+02	9.475550e-01	0	0
1578359	2.195000e+00	-1.126060e+02	9.371498e-01	0	0
1580313	2.195000e+00	-1.257826e+02	9.266786e-01	0	0
1582266	2.195000e+00	-1.402750e+02	9.161632e-01	0	0
1584219	2.195000e+00	-1.374178e+02	9.055755e-01	0	0
1586172	2.195000e+00	-1.512906e+02	8.950134e-01	0	0
1588125	2.195000e+00	-1.538367e+02	8.841257e-01	0	0
1590078	2.195000e+00	-1.387243e+02	8.742708e-01	0	0
1592031	2.195000e+00	-1.323366e+02	8.701970e-01	0	0
1593984	2.195000e+00	-1.182607e+02	8.657343e-01	0	0
1595938	2.195000e+00	-1.255979e+02	8.614042e-01	0	0
1597891	2.195000e+00	-1.319273e+02	8.570360e-01	0	0
1599844	2.195000e+00	-1.350483e+02	8.526780e-01	0	0
1601797	2.195000e+00	-1.394467e+02	8.483204e-01	0	0
1603750	2.195000e+00	-1.448300e+02	8.439693e-01	0	0
1605703	2.195000e+00	-1.490474e+02	8.396267e-01	0	0
1607656	2.195000e+00	-1.437139e+02	8.352956e-01	0	0
1609609	2.195000e+00	-1.380718e+02	8.309789e-01	0	0
1611563	2.195000e+00	-1.387865e+02	8.266771e-01	0	0
1613516	2.195000e+00	-1.286890e+02	8.223976e-01	0	0
1615469	2.195000e+00	-1.272824e+02	8.181409e-01	0	0
1617422	2.195000e+00	-1.316575e+02	8.139099e-01	0	0
1619375	2.195000e+00	-1.415011e+02	8.097075e-01	0	0
1621328	2.195000e+00	-1.529986e+02	8.055363e-01	0	0
1623281	2.195000e+00	-1.607535e+02	8.013994e-01	0	0
1625234	2.195000e+00	-1.678502e+02	7.972995e-01	0	0
1627188	2.195000e+00	-1.743155e+02	7.932374e-01	0	0
1629141	2.195000e+00	-1.592544e+02	7.892201e-01	0	0
1631094	2.195000e+00	-1.512223e+02	7.852484e-01	0	0
1633047	2.194823e+00	-1.417435e+02	7.813250e-01	0	0
1635000	2.194000e+00	-1.394003e+02	7.774528e-01	0	0
1636953	2.194000e+00	-1.406107e+02	7.736347e-01	0	0
1638906	2.194000e+00	-1.367782e+02	7.698735e-01	0	0
1640859	2.194000e+00	-1.502942e+02	7.661723e-01	0	0
1642813	2.194000e+00	-1.556834e+02	7.625323e-01	0	0
1644766	2.194000e+00	-1.694204e+02	7.589601e-01	0	0
1646719	2.194000e+00	-1.681904e+02	7.554566e-01	0	0
1648672	2.194000e+00	-1.612820e+02	7.520247e-01	0	0
1650625	2.194000e+00	-1.511456e+02	7.486671e-01	0	0
1652578	2.194000e+00	-1.401053e+02	7.453871e-01	0	0
1654531	2.194000e+00	-1.411464e+02	7.421855e-01	0	0
1656484	2.194000e+00	-1.333673e+02	7.390734e-01	0	0
1658438	2.194000e+00	-1.387220e+02	7.360207e-01	0	0
1660391	2.194000e+00	-1.471847e+02	7.331509e-01	0	0
1662344	2.194000e+00	-1.557985e+02	7.300262e-01	0	0
1664297	2.194000e+00	-1.622595e+02	7.282885e-01	0	0
1666250	2.194000e+00	-1.652389e+02	7.218226e-01	0	0
1668203	2.194000e+00	-1.572832e+02	7.328593e-01	0	0
1670156	2.194000e+00	-1.531322e+02	5.051728e-01	0	0
1672109	2.194000e+00	-1.426540e+02	1.340262e-01	0	0
1674063	2.194000e+00	-1.309179e+02	7.782128e-01	0	0
1676016	2.194000e+00	-1.245295e+02	6.938426e-01	0	0
1677969	2.194000e+00	-1.368560e+02	7.249915e-01	0	0
1679922	2.194000e+00	-1.436503e+02	6.726604e-01	0	0
1681875	2.194000e+00	-1.432818e+02	8.470863e-01	0	0
1683828	2.194000e+00	-1.617732e+02	2.328944e+00	0	0
1685781	2.194000e+00	-1.550586e+02	3.684340e+00	0	0
1687734	2.194000e+00	-1.506379e+02	3.432088e+00	0	0
1689688	2.194000e+00	-1.574784e+02	1.666627e+00	0	0
1691641	2.194000e+00	-1.416798e+02	6.310676e-01	0	0
1693594	2.194000e+00	-1.271838e+02	7.177125e-01	0	0
1695547	2.194000e+00	-1.325624e+02	6.943163e-01	0	0
1697500	2.194000e+00	-1.360079e+02	6.930193e-01	0	0
1699453	2.194000e+00	-1.372481e+02	-9.176446e-02	0	0
1701406	2.194000e+00	-1.481397e+02	-1.969951e+00	0	0
1703359	2.194000e+00	-1.575791e+02	-2.328755e+00	0	0
1705313	2.194000e+00	-1.561002e+02	-1.335195e+00	0	0
1707266	2.194000e+00	-1.593680e+02	5.071257e-01	0	0
1709219	2.194000e+00	-1.456865e+02	6.881247e-01	0	0
1711172	2.194000e+00	-1.377538e+02	7.010566e-01	0	0
1713125	2.194000e+00	-1.162372e+02	6.844718e-01	0	0
1715078	2.194000e+00	-1.174519e+02	7.439801e-01	0	0
1717031	2.194000e+00	-1.211196e+02	1.663983e+00	0	0
1718984	2.194000e+00	-1.231179e+02	3.116447e+00	0	0
1720938	2.194000e+00	-1.356668e+02	2.847531e+00	0	0
1722891	2.194000e+00	-1.353983e+02	1.434870e+00	0	0
1724844	2.193818e+00	-1.427475e+02	6.476996e-01	0	0
1726797	2.193000e+00	-1.455311e+02	7.188755e-01	0	0
1728750	2.193182e+00	-1.378196e+02	6.895904e-01	0	0
1730703	2.193818e+00	-1.243061e+02	7.431778e-01	0	0
1732656	2.193000e+00	-1.171999e+02	5.586865e-01	0	0
1734609	2.193000e+00	-1.135882e+02	-8.246411e-01	0	0
1736563	2.193183e+00	-1.171827e+02	-1.647071e+00	0	0
1738516	2.193817e+00	-1.191592e+02	-9.153606e-01	0	0
1740469	2.193000e+00	-1.245414e+02	4.588995e-01	0	0
1742422	2.193000e+00	-1.402471e+02	7.216643e-01	0	0
1744375	2.193000e+00	-1.507904e+02	7.157199e-01	0	0
1746328	2.193000e+00	-1.496369e+02	7.201026e-01	0	0
1748281	2.193000e+00	-1.400866e+02	7.218306e-01	0	0
1750234	2.193000e+00	-1.338217e+02	7.244399e-01	0	0
1752188	2.193000e+00	-1.267643e+02	7.267625e-01	0	0
1754141	2.193000e+00	-1.212838e+02	7.299298e-01	0	0
1756094	2.193000e+00	-1.141819e+02	7.305668e-01	0	0
1758047	2.193000e+00	-1.231644e+02	7.410389e-01	0	0
1760000	2.193000e+00	-1.238572e+02	7.154136e-01	0	0
1761953	2.193000e+00	-1.276454e+02	8.754342e-01	0	0
1763906	2.193000e+00	-1.477278e+02	1.786265e+00	0	0
1765859	2.193000e+00	-1.480594e+02	2.467356e+00	0	0
1767813	2.193000e+00	-1.460032e+02	2.998002e+00	0	0
1769766	2.193000e+00	-1.354616e+02	3.325723e+00	0	0
1771719	2.193000e+00	-1.267341e+02	3.557164e+00	0	0
1773672	2.193000e+00	-1.212636e+02	3.769759e+00	0	0
1775625	2.193000e+00	-1.249204e+02	3.939588e+00	0	0
1777578	2.193000e+00	-1.329901e+02	4.065623e+00	0	0
1779531	2.193000e+00	-1.306937e+02	4.224659e+00	0	0
1781484	2.193000e+00	-1.396353e+02	4.462148e+00	0	0
1783438	2.193000e+00	-1.621825e+02	4.740360e+00	0	0
1785391	2.193000e+00	-1.548496e+02	5.089968e+00	0	0
1787344	2.193000e+00	-1.474285e+02	5.539050e+00	0	0
1789297	2.193000e+00	-1.430473e+02	5.929927e+00	0	0
1791250	2.193000e+00	-1.314743e+02	5.274608e+00	0	0
1793203	2.193000e+00	-1.239616e+02	2.902679e+00	0	0
1795156	2.193000e+00	-1.249870e+02	3.041862e-01	0	0
1797109	2.193000e+00	-1.275236e+02	5.381254e-01	0	0
1799063	2.193000e+00	-1.269560e+02	4.137672e-01	0	0
1801016	2.193000e+00	-1.419903e+02	4.954976e-01	0	0
1802969	2.193000e+00	-1.504573e+02	-7.887227e-02	0	0
1804922	2.193000e+00	-1.524201e+02	-2.906328e+00	0	0
1806875	2.193000e+00	-1.582541e+02	-4.287413e+00	0	0
1808828	2.193000e+00	-1.503564e+02	-4.452494e+00	0	0
1810781	2.193000e+00	-1.349192e+02	-2.953450e+00	0	0
1812734	2.193000e+00	-1.286723e+02	-3.461895e-01	0	0
1814688	2.193000e+00	-1.185812e+02	2.830246e-01	0	0
1816641	2.193000e+00	-1.162847e+02	2.325700e-01	0	0
1818594	2.193000e+00	-1.333209e+02	2.287357e-01	0	0
1820547	2.193000e+00	-1.439250e+02	1.080347e+00	0	0
1822500	2.192813e+00	-1.491399e+02	3.150503e+00	0	0
1824453	2.192000e+00	-1.520924e+02	3.079060e+00	0	0
1826406	2.192000e+00	-1.522073e+02	1.377264e+00	0	0
1828359	2.192000e+00	-1.383744e+02	7.565347e-02	0	0
1830313	2.192000e+00	-1.266584e+02	1.844494e-01	0	0
1832266	2.192000e+00	-1.173105e+02	1.866827e-01	0	0
1834219	2.192000e+00	-1.130067e+02	5.272964e-02	0	0
1836172	2.192000e+00	-1.195332e+02	-1.057777e+00	0	0
1838125	2.192000e+00	-1.304696e+02	-1.816256e+00	0	0
1840078	2.192000e+00	-1.358027e+02	-1.560651e+00	0	0
1842031	2.192000e+00	-1.397410e+02	-1.038301e+00	0	0
1843984	2.192000e+00	-1.488582e+02	-2.493258e-01	0	0
1845938	2.192000e+00	-1.560462e+02	2.804595e-01	0	0
1847891	2.192000e+00	-1.502932e+02	2.571568e-01	0	0
1849844	2.192000e+00	-1.455510e+02	2.972765e-01	0	0
1851797	2.192000e+00	-1.346613e+02	3.246308e-01	0	0
1853750	2.192000e+00	-1.281651e+02	3.603457e-01	0	0
1855703	2.192000e+00	-1.250988e+02	4.002471e-01	0	0
1857656	2.192000e+00	-1.340112e+02	4.471872e-01	0	0
1859609	2.192000e+00	-1.384295e+02	5.077048e-01	0	0
1861563	2.192000e+00	-1.414467e+02	5.622365e-01	0	0
1863516	2.192000e+00	-1.490476e+02	6.847302e-01	0	0
1865469	2.192000e+00	-1.493280e+02	1.352374e+00	0	0
1867422	2.192000e+00	-1.455194e+02	2.378733e+00	0	0
1869375	2.192000e+00	-1.405092e+02	2.806022e+00	0	0
1871328	2.192000e+00	-1.330376e+02	2.137956e+00	0	0
1873281	2.192000e+00	-1.247562e+02	9.072572e-01	0	0
1875234	2.192000e+00	-1.310897e+02	1.046080e+00	0	0
1877188	2.192000e+00	-1.262745e+02	1.021903e+00	0	0
1879141	2.192000e+00	-1.262958e+02	1.019967e+00	0	0
1881094	2.192000e+00	-1.242961e+02	1.094103e+00	0	0
1883047	2.192000e+00	-1.428625e+02	8.321049e-01	0	0
1885000	2.192000e+00	-1.377841e+02	-8.851658e-01	0	0
1886953	2.192000e+00	-1.317223e+02	-1.668029e+00	0	0
1888906	2.192000e+00	-1.200845e+02	-1.381680e+00	0	0
1890859	2.192000e+00	-9.729071e+01	-5.243119e-01	0	0
1892813	2.192000e+00	-6.529181e+01	4.130840e-01	0	0
1894766	2.192000e+00	-2.172776e+01	1.157384e+00	0	0
1896719	2.192000e+00	-3.249796e+00	1.093947e+00	0	0
1898672	2.192000e+00	-4.316035e+00	1.123268e+00	0	0
1900625	2.192000e+00	1.013708e+00	1.129115e+00	0	0
1902578	2.192000e+00	-1.006335e+01	1.137672e+00	0	0
1904531	2.192000e+00	-1.794222e+01	1.160425e+00	0	0
1906484	2.192000e+00	-4.287328e+00	1.126178e+00	0	0
1908438	2.192000e+00	4.854013e+00	1.322235e+00	0	0
1910391	2.192000e+00	1.070117e+01	3.102316e+00	0	0
1912344	2.192000e+00	2.442363e+01	5.474650e+00	0	0
1914297	2.192000e+00	4.788814e+01	6.608629e+00	0	0
1916250	2.191808e+00	5.491689e+01	6.247336e+00	0	0
1918203	2.191000e+00	4.686756e+01	4.058909e+00	0	0
1920156	2.191192e+00	5.216940e+01	1.742814e+00	0	0
1922109	2.192000e+00	5.260334e+01	2.178340e+00	0	0
1924063	2.191807e+00	5.246764e+01	2.271677e+00	0	0
1926016	2.191000e+00	5.223268e+01	2.495329e+00	0	0
1927969	2.191000e+00	6.099840e+01	1.395655e+00	0	0
1929922	2.191000e+00	7.995987e+01	-2.144772e+00	0	0
1931875	2.191000e+00	1.109870e+02	-2.932689e+00	0	0
1933828	2.191000e+00	1.200731e+02	-3.874933e-01	0	0
1935781	2.191000e+00	1.017665e+02	3.380216e+00	0	0
1937734	2.191000e+00	9.395364e+01	3.326911e+00	0	0
1939688	2.191000e+00	8.075156e+01	3.665502e+00	0	0
1941641	2.191000e+00	7.963111e+01	5.604199e+00	0	0
1943594	2.191000e+00	6.353782e+01	8.770839e+00	0	0
1945547	2.191000e+00	4.693442e+01	9.020744e+00	0	0
1947500	2.191000e+00	3.508738e+01	6.653107e+00	0	0
1949453	2.191000e+00	4.571902e+01	3.938472e+00	0	0
1951406	2.191000e+00	4.913132e+01	4.362476e+00	0	0
1953359	2.191000e+00	3.453857e+01	4.261085e+00	0	0
1955313	2.191000e+00	7.935052e+00	3.120334e+00	0	0
1957266	2.191000e+00	-1.002309e+01	1.731170e+00	0	0
1959219	2.191000e+00	-1.913087e+01	2.329541e+00	0	0
1961172	2.191000e+00	-4.739327e+01	3.739034e+00	0	0
1963125	2.191000e+00	-6.951010e+01	4.634871e+00	0	0
1965078	2.191000e+00	-8.234872e+01	4.543375e+00	0	0
1967031	2.191000e+00	-1.003287e+02	4.544937e+00	0	0
1968984	2.191000e+00	-1.113759e+02	4.504371e+00	0	0
1970938	2.191000e+00	-1.137597e+02	4.458858e+00	0	0
1972891	2.191000e+00	-1.109441e+02	4.399458e+00	0	0
1974844	2.191000e+00	-1.030277e+02	4.329541e+00	0	0
1976797	2.191000e+00	-1.133424e+02	4.249179e+00	0	0
1978750	2.191000e+00	-1.306023e+02	4.159336e+00	0	0
1980703	2.191000e+00	-1.472924e+02	4.060735e+00	0	0
1982656	2.191000e+00	-1.611772e+02	3.954162e+00	0	0
1984609	2.191000e+00	-1.674122e+02	3.840401e+00	0	0
1986563	2.191000e+00	-1.758235e+02	3.720108e+00	0	0
1988516	2.191000e+00	-1.619437e+02	3.594400e+00	0	0
1990469	2.191000e+00	-1.548404e+02	3.463198e+00	0	0
1992422	2.191000e+00	-1.466276e+02	3.330245e+00	0	0
1994375	2.191000e+00	-1.406950e+02	3.185233e+00	0	0
1996328	2.191000e+00	-1.638478e+02	3.071626e+00	0	0
1998281	2.191000e+00	-1.769673e+02	3.123603e+00	0	0
2000234	2.191000e+00	-1.681413e+02	3.184348e+00	0	0
2002188	2.191000e+00	-1.860642e+02	3.243610e+00	0	0
2004141	2.191000e+00	-1.927383e+02	3.279588e+00	0	0
2006094	2.191000e+00	-1.934338e+02	3.290329e+00	0	0
2008047	2.190803e+00	-1.905035e+02	4.283529e+00	0	0
2010000	2.190197e+00	-1.864016e+02	6.839002e+00	0	0
2011953	2.190803e+00	-1.774699e+02	7.519066e+00	0	0
2013906	2.190000e+00	-1.596203e+02	5.862543e+00	0	0
2015859	2.190000e+00	-1.604428e+02	3.011758e+00	0	0
2017813	2.190198e+00	-1.721614e+02	2.302417e+00	0	0
2019766	2.190802e+00	-1.826561e+02	1.777351e+00	0	0
2021719	2.190000e+00	-1.865150e+02	1.202870e+00	0	0
2023672	2.190000e+00	-1.962065e+02	-1.292141e+00	0	0
2025625	2.190000e+00	-2.023715e+02	-4.324544e+00	0	0
2027578	2.190000e+00	-1.934684e+02	-5.625094e+00	0	0
2029531	2.190000e+00	-1.853202e+02	-4.923536e+00	0	0
2031484	2.190000e+00	-1.841961e+02	-1.974434e+00	0	0
2033438	2.190000e+00	-1.672302e+02	1.644685e+00	0	0
2035391	2.190000e+00	-1.658688e+02	2.400165e+00	0	0
2037344	2.190000e+00	-1.751087e+02	1.938042e+00	0	0
2039297	2.190000e+00	-1.718992e+02	2.373229e+00	0	0
2041250	2.190000e+00	-1.625246e+02	6.188829e+00	0	0
2043203	2.190000e+00	-1.695226e+02	8.492022e+00	0	0
2045156	2.190000e+00	-1.742998e+02	9.395546e+00	0	0
2047109	2.190000e+00	-2.007875e+02	7.581723e+00	0	0
2049063	2.190000e+00	-2.114513e+02	4.651427e+00	0	0
2051016	2.190000e+00	-2.370573e+02	4.616273e+00	0	0
2052969	2.190000e+00	-2.420221e+02	3.664482e+00	0	0
2054922	2.190000e+00	-2.248025e+02	2.391768e+00	0	0
2056875	2.190000e+00	-2.038604e+02	7.931049e-01	0	0
2058828	2.190000e+00	-1.493060e+02	-2.447396e-01	0	0
2060781	2.190000e+00	-7.739188e+01	-2.816052e-01	0	0
2062734	2.190000e+00	1.213193e+01	-4.294691e-01	0	0
2064688	2.190000e+00	8.977576e+01	-4.237030e-01	0	0
2066641	2.190000e+00	2.072920e+02	-6.977987e-01	0	0
2068594	2.190000e+00	4.317488e+02	-2.264229e+00	0	0
2070547	2.190000e+00	7.276881e+02	-3.247253e+00	0	0
2072500	2.190000e+00	9.711374e+02	-3.688188e+00	0	0
2074453	2.190000e+00	1.233364e+03	-3.462872e+00	0	0
2076406	2.190000e+00	1.509326e+03	-2.766686e+00	0	0
2078359	2.190000e+00	1.727807e+03	-1.801140e+00	0	0
2080313	2.190000e+00	1.856901e+03	-5.812994e-01	0	0
2082266	2.190000e+00	1.789817e+03	4.098674e-01	0	0
2084219	2.190000e+00	1.652653e+03	5.800812e-01	0	0
2086172	2.190000e+00	1.346220e+03	8.766888e-01	0	0
2088125	2.190000e+00	1.021821e+03	1.170340e+00	0	0
2090078	2.190000e+00	8.355565e+02	1.492606e+00	0	0
2092031	2.190000e+00	6.489660e+02	1.832486e+00	0	0
2093984	2.190000e+00	4.451137e+02	2.188327e+00	0	0
2095938	2.190000e+00	8.333410e+01	2.563873e+00	0	0
2097891	2.190000e+00	-2.035589e+02	2.933760e+00	0	0
2099844	2.190000e+00	-2.752807e+02	3.732568e+00	0	0
2101797	2.190000e+00	-2.994201e+02	5.459769e+00	0	0
2103750	2.189798e+00	-2.769560e+02	6.101382e+00	0	0
2105703	2.189203e+00	-2.514570e+02	5.671905e+00	0	0
2107656	2.190000e+00	-2.211699e+02	6.203815e+00	0	0
2109609	2.189797e+00	-1.686741e+02	6.060694e+00	0	0
2111563	2.189000e+00	-1.308894e+02	5.912026e+00	0	0
2113516	2.189000e+00	-7.983076e+01	4.921948e+00	0	0
2115469	2.189000e+00	-6.807034e+01	1.830069e+00	0	0
2117422	2.189000e+00	-6.796118e+01	1.162528e+00	0	0
2119375	2.189000e+00	-7.561356e+01	2.621199e+00	0	0
2121328	2.189000e+00	-9.327918e+01	5.222453e+00	0	0
2123281	2.189000e+00	-9.738518e+01	5.733071e+00	0	0
2125234	2.189000e+00	-1.052406e+02	6.314179e+00	0	0
2127188	2.189000e+00	-1.086051e+02	6.707500e+00	0	0
2129141	2.189000e+00	-1.021170e+02	7.604508e+00	0	0
2131094	2.189000e+00	-9.176136e+01	1.027994e+01	0	0
2133047	2.189000e+00	-8.621899e+01	1.114040e+01	0	0
2135000	2.189000e+00	-8.112655e+01	1.054438e+01	0	0
2136953	2.189000e+00	-7.605639e+01	8.348426e+00	0	0
2138906	2.189000e+00	-9.539016e+01	6.033926e+00	0	0
2140859	2.189000e+00	-1.070347e+02	6.064984e+00	0	0
2142813	2.189000e+00	-1.027083e+02	6.198732e+00	0	0
2144766	2.189000e+00	-1.163644e+02	6.472638e+00	0	0
2146719	2.189000e+00	-1.223043e+02	6.825207e+00	0	0
2148672	2.189000e+00	-1.009242e+02	7.264877e+00	0	0
2150625	2.189000e+00	-8.688078e+01	7.765233e+00	0	0
2152578	2.189000e+00	-7.877912e+01	8.369247e+00	0	0
2154531	2.189000e+00	-7.456866e+01	8.870322e+00	0	0
2156484	2.189000e+00	-7.129940e+01	8.641520e+00	0	0
2158438	2.189000e+00	-8.296757e+01	7.534793e+00	0	0
2160391	2.189000e+00	-9.008133e+01	4.742447e+00	0	0
2162344	2.189000e+00	-1.016071e+02	1.954758e+00	0	0
2164297	2.189000e+00	-1.115526e+02	-4.907214e-01	0	0
2166250	2.189000e+00	-1.052221e+02	-2.552003e+00	0	0
2168203	2.189000e+00	-9.425849e+01	-3.839343e+00	0	0
2170156	2.189000e+00	-8.118087e+01	-3.433317e+00	0	0
2172109	2.189000e+00	-6.805832e+01	-2.351503e+00	0	0
2174063	2.189000e+00	-4.891903e+01	-2.457512e+00	0	0
2176016	2.189000e+00	-5.895026e+01	-3.835400e+00	0	0
2177969	2.189000e+00	-6.773757e+01	-5.188154e+00	0	0
2179922	2.189000e+00	-6.827673e+01	-4.876188e+00	0	0
2181875	2.189000e+00	-7.540918e+01	-1.733555e+00	0	0
2183828	2.189000e+00	-8.291322e+01	6.546301e-03	0	0
2185781	2.189000e+00	-8.555272e+01	7.552338e-01	0	0
2187734	2.189000e+00	-7.631615e+01	2.564214e-01	0	0
2189688	2.189000e+00	-6.262037e+01	-1.155472e+00	0	0
2191641	2.189000e+00	-5.679603e+01	2.768774e+00	0	0
2193594	2.189000e+00	-3.961412e+01	7.325907e+00	0	0
2195547	2.189000e+00	-2.589218e+01	-4.419897e+00	0	0
2197500	2.189000e+00	-3.495271e+01	-8.797546e+00	0	0
2199453	2.189000e+00	-4.349747e+01	-1.165822e+01	0	0
2201406	2.189000e+00	-4.591115e+01	-6.095725e+00	0	0
2203359	2.188792e+00	-4.279965e+01	1.350564e+01	0	0
2205313	2.188208e+00	-4.330160e+01	3.496045e+01	0	0
2207266	2.189000e+00	-4.129655e+01	4.773236e+01	0	0
2209219	2.188792e+00	-3.516497e+01	7.352481e+01	0	0
2211172	2.188000e+00	-1.346893e+01	6.031214e+01	0	0
2213125	2.188000e+00	2.821681e+00	1.004952e+01	0	0
2215078	2.188000e+00	-4.295690e+00	-5.083540e+01	0	0
2217031	2.188000e+00	4.304722e-01	-1.162987e+02	0	0
2218984	2.188000e+00	2.308540e+00	-1.367206e+02	0	0
2220938	2.188000e+00	-9.428103e+00	-1.025120e+02	0	0
2222891	2.188209e+00	-2.024029e+01	-4.436370e+01	0	0
2224844	2.188791e+00	-1.754828e+01	5.929985e+00	0	0
2226797	2.188000e+00	-2.171538e+01	5.069721e+01	0	0
2228750	2.188000e+00	-9.094733e-01	5.217160e+01	0	0
2230703	2.188000e+00	1.190049e+01	2.989218e+01	0	0
2232656	2.188000e+00	2.455950e+01	1.571791e+01	0	0
2234609	2.188000e+00	3.511615e+01	1.016132e+01	0	0
2236563	2.188000e+00	3.866310e+01	-2.962729e+00	0	0
2238516	2.188000e+00	3.503680e+01	-6.735275e+00	0	0
2240469	2.188000e+00	3.316286e+01	-7.288081e+00	0	0
2242422	2.188000e+00	2.871514e+01	-7.455601e+00	0	0
2244375	2.188000e+00	3.500546e+01	-6.026609e+00	0	0
2246328	2.188000e+00	3.241680e+01	-4.293325e+00	0	0
2248281	2.188000e+00	5.048705e+01	-1.548464e+00	0	0
2250234	2.188000e+00	5.966760e+01	6.018989e+00	0	0
2252188	2.188000e+00	8.052781e+01	9.982748e+00	0	0
2254141	2.188000e+00	1.023548e+02	7.619580e+00	0	0
2256094	2.188000e+00	9.828821e+01	4.581858e+00	0	0
2258047	2.188000e+00	9.638002e+01	2.951967e+00	0	0
2260000	2.188000e+00	9.648682e+01	5.358742e+00	0	0
2261953	2.188000e+00	9.193475e+01	6.889208e+00	0	0
2263906	2.188000e+00	8.827267e+01	7.713801e+00	0	0
2265859	2.188000e+00	9.828461e+01	7.606115e+00	0	0
2267813	2.188000e+00	9.081254e+01	6.563234e+00	0	0
2269766	2.188000e+00	1.292021e+02	4.111703e+00	0	0
2271719	2.188000e+00	1.486198e+02	1.531446e+00	0	0
2273672	2.188000e+00	1.830786e+02	2.177304e+00	0	0
2275625	2.188000e+00	1.766688e+02	2.524235e+00	0	0
2277578	2.188000e+00	1.909204e+02	2.598709e+00	0	0
2279531	2.188000e+00	1.967718e+02	6.546091e-01	0	0
2281484	2.188000e+00	1.867984e+02	-1.804891e+00	0	0
2283438	2.188000e+00	1.987814e+02	-2.147505e+00	0	0
2285391	2.188000e+00	2.026495e+02	-7.989311e-01	0	0
2287344	2.188000e+00	2.212427e+02	1.828926e+00	0	0
2289297	2.188000e+00	2.420439e+02	3.372811e+00	0	0
2291250	2.188000e+00	2.575722e+02	3.272833e+00	0	0
2293203	2.188000e+00	2.765534e+02	3.221833e+00	0	0
2295156	2.188000e+00	2.924622e+02	3.665181e+00	0	0
2297109	2.188000e+00	2.858002e+02	6.135294e+00	0	0
2299063	2.188000e+00	2.985042e+02	7.418040e+00	0	0
2301016	2.188000e+00	3.003295e+02	7.969379e+00	0	0
2302969	2.187786e+00	3.024118e+02	8.413160e+00	0	0
2304922	2.187214e+00	3.295711e+02	8.617468e+00	0	0
2306875	2.188000e+00	3.395627e+02	8.551864e+00	0	0
2308828	2.188000e+00	3.545947e+02	8.120428e+00	0	0
2310781	2.187786e+00	3.686068e+02	6.746525e+00	0	0
2312734	2.187000e+00	4.151643e+02	4.653169e+00	0	0
2314688	2.187000e+00	4.245689e+02	4.120868e+00	0	0
2316641	2.187000e+00	4.194603e+02	4.896607e+00	0	0
2318594	2.187000e+00	4.595452e+02	5.415272e+00	0	0
2320547	2.187000e+00	4.616303e+02	5.413397e+00	0	0
2322500	2.187000e+00	4.625176e+02	4.211794e+00	0	0
2324453	2.187000e+00	4.659317e+02	1.795065e+00	0	0
2326406	2.187000e+00	4.907456e+02	7.160150e-01	0	0
2328359	2.187000e+00	5.014493e+02	9.124537e-01	0	0
2330313	2.187000e+00	5.375861e+02	2.729546e+00	0	0
2332266	2.187000e+00	5.561162e+02	4.993829e+00	0	0
2334219	2.187000e+00	5.658575e+02	5.209736e+00	0	0
2336172	2.187000e+00	5.767566e+02	4.867687e+00	0	0
2338125	2.187000e+00	5.812777e+02	4.603987e+00	0	0
2340078	2.187000e+00	5.784859e+02	5.341809e+00	0	0
2342031	2.187000e+00	5.636529e+02	7.030227e+00	0	0
2343984	2.187000e+00	5.675029e+02	6.847675e+00	0	0
2345938	2.187000e+00	5.473729e+02	5.774505e+00	0	0
2347891	2.187000e+00	5.530657e+02	4.088968e+00	0	0
2349844	2.187000e+00	5.410448e+02	3.823547e+00	0	0
2351797	2.187000e+00	5.138500e+02	3.111454e+00	0	0
2353750	2.187000e+00	5.217901e+02	2.795043e+00	0	0
2355703	2.187000e+00	5.001864e+02	2.580513e+00	0	0
2357656	2.187000e+00	4.426325e+02	2.354505e+00	0	0
2359609	2.187000e+00	4.215924e+02	2.124852e+00	0	0
2361563	2.187000e+00	3.794978e+02	1.890570e+00	0	0
2363516	2.187000e+00	3.438992e+02	1.653363e+00	0	0
2365469	2.187000e+00	3.315143e+02	1.413968e+00	0	0
2367422	2.187000e+00	2.896509e+02	1.173344e+00	0	0
2369375	2.187000e+00	2.801317e+02	9.326426e-01	0	0
2371328	2.187000e+00	2.510248e+02	6.921013e-01	0	0
2373281	2.187000e+00	2.220143e+02	4.479890e-01	0	0
2375234	2.187000e+00	2.089446e+02	1.986597e-01	0	0
2377188	2.187000e+00	1.730586e+02	-5.379034e-02	0	0
2379141	2.187000e+00	1.473357e+02	-3.071773e-01	0	0
2381094	2.187000e+00	1.239451e+02	-5.588427e-01	0	0
2383047	2.187000e+00	8.328522e+01	-8.062503e-01	0	0
2385000	2.187000e+00	4.166191e+01	-1.047237e+00	0	0
2386953	2.187000e+00	3.106153e+01	-1.279344e+00	0	0
2388906	2.187000e+00	2.729593e+01	-1.500447e+00	0	0
2390859	2.187000e+00	1.080267e+01	-1.708665e+00	0	0
2392813	2.187000e+00	1.744530e+01	-1.902166e+00	0	0
2394766	2.187000e+00	1.809240e+01	-2.078917e+00	0	0
2396719	2.187000e+00	1.423420e+01	-2.236865e+00	0	0
2398672	2.187000e+00	-1.568896e+01	-2.375103e+00	0	0
2400625	2.187000e+00	-3.690945e+01	-2.498474e+00	0	0
2402578	2.187000e+00	-3.231729e+01	-2.610240e+00	0	0
2404531	2.186781e+00	-4.078292e+01	-2.709158e+00	0	0
2406484	2.186219e+00	-5.109678e+01	-2.795017e+00	0	0
2408438	2.186781e+00	-4.067481e+01	-2.867425e+00	0	0
2410391	2.186000e+00	-5.023571e+01	-2.925944e+00	0	0
2412344	2.186000e+00	-4.169393e+01	-2.970225e+00	0	0
2414297	2.186000e+00	-2.858380e+01	-2.999919e+00	0	0
2416250	2.186000e+00	-3.747400e+01	-3.014536e+00	0	0
2418203	2.186000e+00	-3.824482e+01	-3.014113e+00	0	0
2420156	2.186000e+00	-3.991479e+01	-2.996722e+00	0	0
2422109	2.186000e+00	-4.642539e+01	-2.967765e+00	0	0
2424063	2.186000e+00	-6.502007e+01	-2.905227e+00	0	0
2426016	2.186000e+00	-6.172755e+01	-2.892326e+00	0	0
2427969	2.186000e+00	-6.743590e+01	-3.077977e+00	0	0
2429922	2.186000e+00	-6.694062e+01	-3.074247e+00	0	0
2431875	2.186000e+00	-6.029688e+01	-2.822014e+00	0	0
2433828	2.186000e+00	-5.329856e+01	-2.427035e+00	0	0
2435781	2.186000e+00	-5.024252e+01	-2.323159e+00	0	0
2437734	2.186000e+00	-5.449374e+01	-2.189693e+00	0	0
2439688	2.186000e+00	-6.349676e+01	-2.060833e+00	0	0
2441641	2.186000e+00	-6.442466e+01	-1.926032e+00	0	0
2443594	2.186000e+00	-7.660626e+01	-1.788807e+00	0	0
2445547	2.186000e+00	-8.687274e+01	-1.648942e+00	0	0
2447500	2.186000e+00	-8.974765e+01	-1.507148e+00	0	0
2449453	2.186000e+00	-7.018192e+01	-1.364232e+00	0	0
2451406	2.186000e+00	-6.712570e+01	-1.219685e+00	0	0
2453359	2.186000e+00	-5.772265e+01	-1.078147e+00	0	0
2455313	2.186000e+00	-4.091341e+01	-9.200358e-01	0	0
2457266	2.186000e+00	-4.661764e+01	-7.076808e-01	0	0
2459219	2.186000e+00	-5.032993e+01	-5.028736e-01	0	0
2461172	2.186000e+00	-5.883762e+01	-3.071343e-01	0	0
2463125	2.186000e+00	-6.115836e+01	-8.366064e-02	0	0
2465078	2.186000e+00	-6.364947e+01	3.532526e-01	0	0
2467031	2.186000e+00	-8.094257e+01	9.251989e-01	0	0
2468984	2.186000e+00	-8.363025e+01	1.418864e+00	0	0
2470938	2.186000e+00	-6.707708e+01	1.870044e+00	0	0
2472891	2.186000e+00	-6.800061e+01	2.258567e+00	0	0
2474844	2.186000e+00	-5.238490e+01	2.583104e+00	0	0
2476797	2.186000e+00	-4.454142e+01	2.838009e+00	0	0
2478750	2.186000e+00	-4.728154e+01	3.018812e+00	0	0
2480703	2.186000e+00	-6.708896e+01	3.120414e+00	0	0
2482656	2.186000e+00	-8.662469e+01	3.140055e+00	0	0
2484609	2.186000e+00	-8.959717e+01	3.225290e+00	0	0
2486563	2.186000e+00	-8.147730e+01	3.191004e+00	0	0
2488516	2.186000e+00	-7.541042e+01	2.633879e+00	0	0
2490469	2.186000e+00	-7.845055e+01	2.398099e+00	0	0
2492422	2.186000e+00	-6.256215e+01	2.264326e+00	0	0
2494375	2.186000e+00	-3.216682e+01	2.433222e+00	0	0
2496328	2.186000e+00	-5.033640e+01	2.561425e+00	0	0
2498281	2.186000e+00	-6.061686e+01	2.700097e+00	0	0
2500234	2.186000e+00	-4.173118e+01	2.837342e+00	0	0
2502188	2.186000e+00	-7.096442e+01	2.969690e+00	0	0
2504141	2.186000e+00	-8.285461e+01	3.122485e+00	0	0
2506094	2.186000e+00	-8.455857e+01	3.193253e+00	0	0
2508047	2.186000e+00	-9.207945e+01	3.017837e+00	0	0
2510000	2.185775e+00	-7.282642e+01	3.234461e+00	0	0
2511953	2.185000e+00	-6.155332e+01	3.681840e+00	0	0
2513906	2.185000e+00	-3.785461e+01	3.775594e+00	0	0
2515859	2.185000e+00	-3.522077e+01	3.918993e+00	0	0
2517813	2.185000e+00	-4.570060e+01	4.048497e+00	0	0
2519766	2.185000e+00	-4.081952e+01	4.178535e+00	0	0
2521719	2.185000e+00	-6.221940e+01	4.313919e+00	0	0
2523672	2.185000e+00	-6.093659e+01	4.414860e+00	0	0
2525625	2.185000e+00	-7.197865e+01	4.396601e+00	0	0
2527578	2.185000e+00	-7.870676e+01	4.393541e+00	0	0
2529531	2.185000e+00	-6.233017e+01	4.387468e+00	0	0
2531484	2.185000e+00	-4.236193e+01	4.378450e+00	0	0
2533438	2.185000e+00	-4.806680e+01	4.384470e+00	0	0
2535391	2.185000e+00	-3.558502e+01	4.330503e+00	0	0
2537344	2.185000e+00	-3.049815e+01	4.043270e+00	0	0
2539297	2.185000e+00	-4.032317e+01	3.763931e+00	0	0
2541250	2.185000e+00	-3.119490e+01	3.461522e+00	0	0
2543203	2.185000e+00	-5.281491e+01	3.174036e+00	0	0
2545156	2.185000e+00	-5.024311e+01	2.921825e+00	0	0
2547109	2.185000e+00	-5.270005e+01	2.708345e+00	0	0
2549063	2.185000e+00	-5.986336e+01	2.538658e+00	0	0
2551016	2.185000e+00	-4.685597e+01	2.417691e+00	0	0
2552969	2.185000e+00	-3.692170e+01	2.349950e+00	0	0
2554922	2.185000e+00	-2.786821e+01	2.338658e+00	0	0
2556875	2.185000e+00	-2.919447e+01	2.384183e+00	0	0
2558828	2.185000e+00	-1.874699e+01	2.482051e+00	0	0
2560781	2.185000e+00	-2.630260e+01	2.627218e+00	0	0
2562734	2.185000e+00	-3.720092e+01	2.814715e+00	0	0
2564688	2.185000e+00	-4.261977e+01	3.039393e+00	0	0
2566641	2.185000e+00	-6.459965e+01	3.296881e+00	0	0
2568594	2.185000e+00	-5.523892e+01	3.578966e+00	0	0
2570547	2.185000e+00	-4.075356e+01	3.899867e+00	0	0
2572500	2.185000e+00	-3.300753e+01	4.195442e+00	0	0
2574453	2.185000e+00	-2.489776e+01	4.267647e+00	0	0
2576406	2.185000e+00	-2.534035e+01	4.257460e+00	0	0
2578359	2.185000e+00	-3.392977e+01	4.254682e+00	0	0
2580313	2.185000e+00	-3.406560e+01	4.249958e+00	0	0
2582266	2.185000e+00	-7.732052e+01	4.246224e+00	0	0
2584219	2.185000e+00	-7.273198e+01	4.241127e+00	0	0
2586172	2.185000e+00	-5.936316e+01	4.241150e+00	0	0
2588125	2.185000e+00	-6.024288e+01	4.222722e+00	0	0
2590078	2.185000e+00	-4.668999e+01	4.273680e+00	0	0
2592031	2.185000e+00	-3.731556e+01	4.055488e+00	0	0
2593984	2.185000e+00	-2.133920e+01	3.246965e+00	0	0
2595938	2.185000e+00	-2.651703e+01	3.695133e+00	0	0
2597891	2.185000e+00	-4.118797e+01	4.345520e+00	0	0
2599844	2.185000e+00	-4.860983e+01	4.426421e+00	0	0
2601797	2.185000e+00	-7.068566e+01	4.941349e+00	0	0
2603750	2.185000e+00	-6.653020e+01	5.273199e+00	0	0
2605703	2.185000e+00	-7.135977e+01	5.921375e+00	0	0
2607656	2.185000e+00	-7.104277e+01	7.951387e+00	0	0
2609609	2.185000e+00	-5.510473e+01	8.241349e+00	0	0
2611563	2.184769e+00	-6.579059e+01	6.648370e+00	0	0
2613516	2.184231e+00	-1.534559e+01	4.640950e+00	0	0
2615469	2.185000e+00	-1.752174e+01	4.821608e+00	0	0
2617422	2.185000e+00	-4.645484e+01	4.672444e+00	0	0
2619375	2.185000e+00	-4.031559e+01	4.729231e+00	0	0
2621328	2.184769e+00	-5.198905e+01	4.154435e+00	0	0
2623281	2.184000e+00	-6.221103e+01	1.856594e+00	0	0
2625234	2.184231e+00	-6.878816e+01	1.095887e+00	0	0
2627188	2.184769e+00	-7.933136e+01	1.864479e+00	0	0
2629141	2.184231e+00	-5.659151e+01	3.771113e+00	0	0
2631094	2.184769e+00	-3.309127e+01	4.201838e+00	0	0
2633047	2.184000e+00	-2.710118e+01	4.199915e+00	0	0
2635000	2.184000e+00	-3.167955e+01	4.108193e+00	0	0
2636953	2.184000e+00	-3.268710e+01	4.498591e+00	0	0
2638906	2.184000e+00	-4.791623e+01	6.390931e+00	0	0
2640859	2.184000e+00	-5.189148e+01	6.960915e+00	0	0
2642813	2.184000e+00	-7.192035e+01	5.883510e+00	0	0
2644766	2.184000e+00	-7.166144e+01	4.228740e+00	0	0
2646719	2.184000e+00	-6.821900e+01	4.206707e+00	0	0
2648672	2.184000e+00	-6.612907e+01	4.180560e+00	0	0
2650625	2.184000e+00	-6.204449e+01	4.201164e+00	0	0
2652578	2.184000e+00	-5.993946e+01	4.144630e+00	0	0
2654531	2.184000e+00	-4.635449e+01	3.167645e+00	0	0
2656484	2.184000e+00	-3.405420e+01	1.476425e+00	0	0
2658438	2.184000e+00	-4.741438e+01	1.394169e+00	0	0
2660391	2.184000e+00	-5.047558e+01	2.833823e+00	0	0
2662344	2.184000e+00	-5.873288e+01	4.346188e+00	0	0
2664297	2.184000e+00	-7.652583e+01	4.166117e+00	0	0
2666250	2.184000e+00	-7.595085e+01	4.216944e+00	0	0
2668203	2.184000e+00	-8.251810e+01	4.211740e+00	0	0
2670156	2.184000e+00	-7.420075e+01	4.201088e+00	0	0
2672109	2.184000e+00	-6.313340e+01	4.278527e+00	0	0
2674063	2.184000e+00	-4.401000e+01	5.300914e+00	0	0
2676016	2.184000e+00	-4.790466e+01	7.205542e+00	0	0
2677969	2.184000e+00	-5.352255e+01	8.258236e+00	0	0
2679922	2.184000e+00	-5.553363e+01	8.223620e+00	0	0
2681875	2.184000e+00	-6.127772e+01	6.856955e+00	0	0
2683828	2.184000e+00	-9.017241e+01	4.887524e+00	0	0
2685781	2.184000e+00	-8.779195e+01	4.198594e+00	0	0
2687734	2.184000e+00	-8.444167e+01	4.275063e+00	0	0
2689688	2.184000e+00	-5.727423e+01	4.236733e+00	0	0
2691641	2.184000e+00	-7.079792e+01	4.308408e+00	0	0
2693594	2.184000e+00	-4.342591e+01	3.399338e+00	0	0
2695547	2.184000e+00	-2.407419e+01	2.571353e-01	0	0
2697500	2.184000e+00	-4.669252e+01	-1.411166e+00	0	0
2699453	2.184000e+00	-4.174503e+01	-1.344812e+00	0	0
2701406	2.184000e+00	-2.709649e+01	1.034704e+00	0	0
2703359	2.184000e+00	9.293389e+00	3.999060e+00	0	0
2705313	2.184000e+00	4.089843e+01	4.167687e+00	0	0
2707266	2.184000e+00	4.427111e+01	3.960656e+00	0	0
2709219	2.184000e+00	7.405036e+01	4.839965e+00	0	0
2711172	2.184000e+00	9.939123e+01	9.130005e+00	0	0
2713125	2.184000e+00	8.724489e+01	1.085691e+01	0	0
2715078	2.184000e+00	1.194942e+02	1.040193e+01	0	0
2717031	2.184000e+00	1.069184e+02	7.235459e+00	0	0
2718984	2.184000e+00	1.015617e+02	3.720160e+00	0	0
2720938	2.184000e+00	8.320642e+01	4.192655e+00	0	0
2722891	2.183763e+00	8.509668e+01	3.865827e+00	0	0
2724844	2.183237e+00	9.204426e+01	1.678927e+00	0	0
2726797	2.184000e+00	8.975710e+01	-1.756167e+00	0	0
2728750	2.184000e+00	1.121740e+02	-2.958764e+00	0	0
2730703	2.183763e+00	1.271730e+02	-2.400424e+00	0	0
2732656	2.183000e+00	1.382833e+02	-2.853604e-01	0	0
2734609	2.183000e+00	1.715376e+02	2.679887e+00	0	0
2736563	2.183000e+00	1.605966e+02	4.137555e+00	0	0
2738516	2.183000e+00	1.510327e+02	4.018464e+00	0	0
2740469	2.183000e+00	1.615631e+02	3.909962e+00	0	0
2742422	2.183000e+00	1.513783e+02	4.475307e+00	0	0
2744375	2.183000e+00	1.403917e+02	7.532711e+00	0	0
2746328	2.183000e+00	1.492999e+02	9.555790e+00	0	0
2748281	2.183000e+00	1.553361e+02	1.022333e+01	0	0
2750234	2.183000e+00	1.584222e+02	9.336765e+00	0	0
2752188	2.183000e+00	1.671525e+02	7.592776e+00	0	0
2754141	2.183000e+00	1.519955e+02	5.474623e+00	0	0
2756094	2.183000e+00	1.537023e+02	3.789261e+00	0	0
2758047	2.183000e+00	1.453349e+02	3.987178e+00	0	0
2760000	2.183000e+00	1.314409e+02	3.928684e+00	0	0
2761953	2.183000e+00	1.124892e+02	3.944714e+00	0	0
2763906	2.183000e+00	9.231824e+01	3.925178e+00	0	0
2765859	2.183000e+00	5.047157e+01	3.979592e+00	0	0
2767813	2.183000e+00	3.702598e+01	3.764162e+00	0	0
2769766	2.183000e+00	2.737139e+01	2.473516e+00	0	0
2771719	2.183000e+00	2.491980e+01	1.341057e+00	0	0
2773672	2.183000e+00	1.810414e+01	9.740375e-01	0	0
2775625	2.183000e+00	6.910577e+00	1.224035e+00	0	0
2777578	2.183000e+00	-1.872609e+01	2.223640e+00	0	0
2779531	2.183000e+00	-4.007689e+01	3.638325e+00	0	0
2781484	2.183000e+00	-5.870787e+01	3.995782e+00	0	0
2783438	2.183000e+00	-7.453652e+01	3.980537e+00	0	0
2785391	2.183000e+00	-8.726174e+01	3.995503e+00	0	0
2787344	2.183000e+00	-1.004138e+02	4.019948e+00	0	0
2789297	2.183000e+00	-9.259378e+01	4.144968e+00	0	0
2791250	2.183000e+00	-9.569428e+01	4.337941e+00	0	0
2793203	2.183000e+00	-8.141464e+01	4.508781e+00	0	0
2795156	2.183000e+00	-7.735042e+01	4.548108e+00	0	0
2797109	2.183000e+00	-8.040857e+01	4.366847e+00	0	0
2799063	2.183000e+00	-8.416934e+01	4.070874e+00	0	0
2801016	2.183000e+00	-9.789948e+01	3.931244e+00	0	0
2802969	2.183000e+00	-1.258591e+02	3.920416e+00	0	0
2804922	2.183000e+00	-1.177519e+02	3.895825e+00	0	0
2806875	2.183000e+00	-1.243110e+02	3.876624e+00	0	0
2808828	2.183000e+00	-1.382947e+02	3.857687e+00	0	0
2810781	2.183000e+00	-1.134891e+02	3.840397e+00	0	0
2812734	2.183000e+00	-1.061581e+02	3.824391e+00	0	0
2814688	2.183000e+00	-1.047527e+02	3.809763e+00	0	0
2816641	2.183000e+00	-9.843888e+01	3.796531e+00	0	0
2818594	2.183000e+00	-1.125531e+02	3.784606e+00	0	0
2820547	2.183000e+00	-1.225312e+02	3.774349e+00	0	0
2822500	2.183000e+00	-1.291691e+02	3.764432e+00	0	0
2824453	2.183000e+00	-1.325069e+02	3.759851e+00	0	0
2826406	2.183000e+00	-1.373748e+02	3.741325e+00	0	0
2828359	2.183000e+00	-1.314767e+02	3.697416e+00	0	0
2830313	2.183000e+00	-1.329190e+02	3.720172e+00	0	0
2832266	2.183000e+00	-1.251547e+02	3.743133e+00	0	0
2834219	2.183000e+00	-1.041312e+02	3.739631e+00	0	0
2836172	2.183000e+00	-1.177005e+02	3.740885e+00	0	0
2838125	2.183000e+00	-1.166402e+02	3.744440e+00	0	0
2840078	2.183000e+00	-1.226099e+02	3.742263e+00	0	0
2842031	2.183000e+00	-1.604003e+02	3.714236e+00	0	0
2843984	2.183000e+00	-1.467759e+02	3.687663e+00	0	0
2845938	2.183000e+00	-1.655327e+02	3.661767e+00	0	0
2847891	2.182755e+00	-1.493124e+02	3.637227e+00	0	0
2849844	2.182000e+00	-1.248069e+02	3.613870e+00	0	0
2851797	2.182245e+00	-1.218598e+02	3.591750e+00	0	0
2853750	2.183000e+00	-1.110393e+02	3.570877e+00	0	0
2855703	2.183000e+00	-1.309955e+02	3.551221e+00	0	0
2857656	2.182755e+00	-1.287779e+02	3.532515e+00	0	0
2859609	2.182000e+00	-1.781622e+02	3.514636e+00	0	0
2861563	2.182000e+00	-2.255026e+02	3.497511e+00	0	0
2863516	2.182000e+00	-2.150937e+02	3.481649e+00	0	0
2865469	2.182246e+00	-2.011151e+02	3.469739e+00	0	0
2867422	2.182754e+00	-1.515279e+02	3.463409e+00	0	0
2869375	2.182000e+00	-6.256957e+01	3.462240e+00	0	0
2871328	2.182000e+00	1.177130e+01	3.466080e+00	0	0
2873281	2.182000e+00	1.094109e+02	3.474708e+00	0	0
2875234	2.182000e+00	2.353210e+02	3.487809e+00	0	0
2877188	2.182000e+00	4.378551e+02	3.504891e+00	0	0
2879141	2.182000e+00	6.976671e+02	3.525571e+00	0	0
2881094	2.182000e+00	9.502870e+02	3.549671e+00	0	0
2883047	2.182000e+00	1.191111e+03	3.576982e+00	0	0
2885000	2.182000e+00	1.448382e+03	3.607300e+00	0	0
2886953	2.182000e+00	1.690007e+03	3.640421e+00	0	0
2888906	2.182000e+00	1.880016e+03	3.676140e+00	0	0
2890859	2.182000e+00	1.885114e+03	3.714254e+00	0	0
2892813	2.182000e+00	1.803012e+03	3.754579e+00	0	0
2894766	2.182000e+00	1.527477e+03	3.796866e+00	0	0
2896719	2.182000e+00	1.176673e+03	3.840945e+00	0	0
2898672	2.182000e+00	9.845423e+02	3.886561e+00	0	0
2900625	2.182000e+00	7.703711e+02	3.933698e+00	0	0
2902578	2.182000e+00	5.515123e+02	3.981444e+00	0	0
2904531	2.182000e+00	1.702108e+02	4.032240e+00	0	0
2906484	2.182000e+00	-1.811944e+02	4.075445e+00	0	0
2908438	2.182000e+00	-2.542781e+02	4.080935e+00	0	0
2910391	2.182000e+00	-2.604333e+02	4.072364e+00	0	0
2912344	2.182000e+00	-2.233370e+02	4.064736e+00	0	0
2914297	2.182000e+00	-1.810996e+02	4.058645e+00	0	0
2916250	2.182000e+00	-1.619604e+02	4.046096e+00	0	0
2918203	2.182000e+00	-1.278103e+02	4.108004e+00	0	0
2920156	2.182000e+00	-9.232824e+01	4.351347e+00	0	0
2922109	2.182000e+00	-5.827460e+01	4.522121e+00	0	0
2924063	2.182000e+00	-6.578212e+01	4.340564e+00	0	0
2926016	2.182000e+00	-4.510597e+01	3.975189e+00	0	0
2927969	2.182000e+00	-5.279808e+01	4.016541e+00	0	0
2929922	2.182000e+00	-4.659058e+01	3.996395e+00	0	0
2931875	2.182000e+00	-4.517670e+01	3.992786e+00	0	0
2933828	2.182000e+00	-5.180911e+01	3.984804e+00	0	0
2935781	2.182000e+00	-4.232382e+01	3.978052e+00	0	0
2937734	2.182000e+00	-3.550191e+01	3.971030e+00	0	0
2939688	2.182000e+00	-4.305970e+01	3.964136e+00	0	0
2941641	2.182000e+00	-8.411944e+01	3.957273e+00	0	0
2943594	2.182000e+00	-7.942144e+01	3.950451e+00	0	0
2945547	2.182000e+00	-7.158122e+01	3.943728e+00	0	0
2947500	2.182000e+00	-7.100344e+01	3.936856e+00	0	0
2949453	2.182000e+00	-7.106775e+01	3.930775e+00	0	0
2951406	2.182000e+00	-5.729440e+01	3.921972e+00	0	0
2953359	2.182000e+00	-5.858072e+01	3.923566e+00	0	0
2955313	2.182000e+00	-5.927793e+01	3.884200e+00	0	0
2957266	2.182000e+00	-5.029999e+01	3.721223e+00	0	0
2959219	2.182000e+00	-5.632366e+01	3.606570e+00	0	0
2961172	2.182000e+00	-6.134093e+01	3.518434e+00	0	0
2963125	2.182000e+00	-7.697860e+01	3.459638e+00	0	0
2965078	2.182000e+00	-6.629660e+01	3.428254e+00	0	0
2967031	2.182000e+00	-6.489682e+01	3.424337e+00	0	0
2968984	2.182000e+00	-7.503712e+01	3.455435e+00	0	0
2970938	2.182000e+00	-5.730291e+01	3.565485e+00	0	0
2972891	2.182000e+00	-3.142383e+01	3.753559e+00	0	0
2974844	2.182000e+00	-2.929291e+01	4.075944e+00	0	0
2976797	2.182000e+00	-2.858991e+01	4.935169e+00	0	0
2978750	2.182000e+00	-2.491717e+01	5.630857e+00	0	0
2980703	2.182000e+00	-3.968188e+01	4.863033e+00	0	0
2982656	2.182000e+00	-4.192500e+01	4.255780e+00	0	0
2984609	2.181747e+00	-3.795508e+01	4.297213e+00	0	0
2986563	2.181253e+00	-4.962450e+01	4.218246e+00	0	0
2988516	2.182000e+00	-4.573096e+01	3.705650e+00	0	0
2990469	2.182000e+00	-2.527314e+01	6.883218e-01	0	0
2992422	2.182000e+00	-1.053691e+01	-2.586823e+00	0	0
2994375	2.181746e+00	-9.180461e+00	-3.082363e+00	0	0
2996328	2.181000e+00	-6.794879e+00	-1.083846e+00	0	0
2998281	2.181000e+00	-7.230337e+00	2.920498e+00	0	0
3000234	2.181000e+00	-4.773173e+00	5.453851e+00	0	0
3002188	2.181000e+00	1.008838e+00	5.249208e+00	0	0
3004141	2.181000e+00	-2.223691e+01	6.654603e+00	0	0
3006094	2.181000e+00	-2.411475e+01	1.215764e+01	0	0
3008047	2.181000e+00	-9.712821e+00	1.592218e+01	0	0
3010000	2.181000e+00	-8.752939e-01	1.704614e+01	0	0
3011953	2.181255e+00	1.700066e+01	1.524872e+01	0	0
3013906	2.181745e+00	3.572026e+01	1.103763e+01	0	0
3015859	2.181000e+00	4.007592e+01	7.151177e+00	0	0
3017813	2.181000e+00	2.926541e+01	6.185374e+00	0	0
3019766	2.181000e+00	1.885821e+01	5.206955e+00	0	0
3021719	2.181000e+00	1.503397e+01	3.868228e+00	0	0
3023672	2.181000e+00	1.454704e+01	1.345984e+00	0	0
3025625	2.181000e+00	4.613124e+00	1.520518e+00	0	0
3027578	2.181000e+00	8.237442e+00	3.362428e+00	0	0
3029531	2.181000e+00	2.010862e+01	3.728838e+00	0	0
3031484	2.181000e+00	4.303817e+01	2.313630e+00	0	0
3033438	2.181000e+00	7.068251e+01	1.605572e+00	0	0
3035391	2.181000e+00	6.538918e+01	1.356120e+00	0	0
3037344	2.181000e+00	5.439085e+01	1.688256e+00	0	0
3039297	2.181000e+00	6.325786e+01	2.258984e+00	0	0
3041250	2.181000e+00	5.933492e+01	2.823667e+00	0	0
3043203	2.181000e+00	4.536005e+01	3.395453e+00	0	0
3045156	2.181000e+00	3.778679e+01	3.967840e+00	0	0
3047109	2.181000e+00	4.674887e+01	4.479584e+00	0	0
3049063	2.181000e+00	6.896664e+01	4.685687e+00	0	0
3051016	2.181000e+00	8.115948e+01	4.643479e+00	0	0
3052969	2.181000e+00	9.179745e+01	4.631236e+00	0	0
3054922	2.181000e+00	1.201677e+02	4.610071e+00	0	0
3056875	2.181000e+00	1.215328e+02	4.587661e+00	0	0
3058828	2.181000e+00	1.083219e+02	4.572030e+00	0	0
3060781	2.181000e+00	1.067958e+02	4.466421e+00	0	0
3062734	2.181000e+00	1.068712e+02	4.163323e+00	0	0
3064688	2.181000e+00	9.761298e+01	3.894397e+00	0	0
3066641	2.181000e+00	1.053946e+02	3.625199e+00	0	0
3068594	2.181000e+00	1.362492e+02	3.366456e+00	0	0
3070547	2.181000e+00	1.447485e+02	3.116818e+00	0	0
3072500	2.181000e+00	1.612530e+02	2.878210e+00	0	0
3074453	2.181000e+00	1.667596e+02	2.651678e+00	0	0
3076406	2.181000e+00	1.717884e+02	2.438505e+00	0	0
3078359	2.181000e+00	1.832933e+02	2.239909e+00	0	0
3080313	2.181000e+00	2.038826e+02	2.057039e+00	0	0
3082266	2.181000e+00	1.767513e+02	1.891312e+00	0	0
3084219	2.181000e+00	1.788070e+02	1.743866e+00	0	0
3086172	2.181000e+00	1.845298e+02	1.615924e+00	0	0
3088125	2.181000e+00	2.058679e+02	1.508751e+00	0	0
3090078	2.181000e+00	2.217415e+02	1.423456e+00	0	0
3092031	2.181000e+00	2.446513e+02	1.361147e+00	0	0
3093984	2.181000e+00	2.789054e+02	1.324756e+00	0	0
3095938	2.181000e+00	2.745886e+02	1.318289e+00	0	0
3097891	2.181000e+00	2.882060e+02	1.333748e+00	0	0
3099844	2.181000e+00	2.835958e+02	1.355232e+00	0	0
3101797	2.181000e+00	2.990725e+02	1.385633e+00	0	0
3103750	2.181000e+00	3.058801e+02	1.422216e+00	0	0
3105703	2.181000e+00	3.009930e+02	1.463188e+00	0	0
3107656	2.181000e+00	3.267628e+02	1.508700e+00	0	0
3109609	2.181000e+00	3.626422e+02	1.558647e+00	0	0
3111563	2.181000e+00	3.755581e+02	1.613022e+00	0	0
3113516	2.181000e+00	3.933578e+02	1.671713e+00	0	0
3115469	2.181000e+00	4.152203e+02	1.734698e+00	0	0
3117422	2.181000e+00	4.408833e+02	1.801922e+00	0	0
3119375	2.181000e+00	4.313941e+02	1.873350e+00	0	0
3121328	2.181000e+00	4.203542e+02	1.948870e+00	0	0
3123281	2.181000e+00	4.486185e+02	2.028656e+00	0	0
3125234	2.181000e+00	4.605466e+02	2.111817e+00	0	0
3127188	2.181000e+00	4.663889e+02	2.201773e+00	0	0
3129141	2.181000e+00	4.691607e+02	2.316771e+00	0	0
3131094	2.181000e+00	4.936560e+02	2.466116e+00	0	0
3133047	2.181000e+00	5.486574e+02	2.649178e+00	0	0
3135000	2.181000e+00	5.563619e+02	2.869812e+00	0	0
3136953	2.181000e+00	5.625445e+02	3.119874e+00	0	0
3138906	2.181000e+00	5.429855e+02	3.389829e+00	0	0
3140859	2.181000e+00	5.603944e+02	3.701510e+00	0	0
3142813	2.181000e+00	5.670668e+02	3.957525e+00	0	0
3144766	2.181000e+00	5.725319e+02	3.970388e+00	0	0
3146719	2.181000e+00	5.728008e+02	3.978019e+00	0	0
3148672	2.181000e+00	5.713384e+02	3.982347e+00	0	0
3150625	2.181000e+00	5.932822e+02	3.987647e+00	0	0
3152578	2.180736e+00	6.095870e+02	3.992762e+00	0	0
3154531	2.180000e+00	6.055470e+02	3.998038e+00	0	0
3156484	2.180000e+00	5.745409e+02	4.003251e+00	0	0
3158438	2.180264e+00	5.778356e+02	4.008949e+00	0	0
3160391	2.181000e+00	5.435098e+02	4.013086e+00	0	0
3162344	2.180736e+00	5.133698e+02	4.014996e+00	0	0
3164297	2.180264e+00	4.902838e+02	4.010387e+00	0	0
3166250	2.181000e+00	4.464737e+02	4.032181e+00	0	0
3168203	2.181000e+00	4.235237e+02	4.249172e+00	0	0
3170156	2.180735e+00	4.082537e+02	4.641380e+00	0	0
3172109	2.180000e+00	3.941125e+02	4.996773e+00	0	0
3174063	2.180000e+00	3.785573e+02	5.343730e+00	0	0
3176016	2.180000e+00	3.411826e+02	5.670727e+00	0	0
3177969	2.180000e+00	3.118119e+02	5.977302e+00	0	0
3179922	2.180000e+00	2.585093e+02	6.260302e+00	0	0
3181875	2.180000e+00	2.024119e+02	6.518025e+00	0	0
3183828	2.180000e+00	1.717181e+02	6.746823e+00	0	0
3185781	2.180000e+00	1.339987e+02	6.949518e+00	0	0
3187734	2.180000e+00	1.155415e+02	7.103301e+00	0	0
3189688	2.180000e+00	1.083534e+02	7.105584e+00	0	0
3191641	2.180000e+00	9.367352e+01	6.910081e+00	0	0
3193594	2.180000e+00	8.108938e+01	6.550777e+00	0	0
3195547	2.180000e+00	6.585205e+01	6.041141e+00	0	0
3197500	2.180000e+00	6.140113e+01	5.422393e+00	0	0
3199453	2.180000e+00	3.020826e+01	4.643827e+00	0	0
3201406	2.180000e+00	2.674381e+01	4.010089e+00	0	0
3203359	2.180000e+00	-9.622215e-01	4.048486e+00	0	0
3205313	2.180000e+00	-1.721659e+01	4.021167e+00	0	0
3207266	2.180000e+00	-2.784704e+01	4.079539e+00	0	0
3209219	2.180000e+00	-2.767991e+01	3.883734e+00	0	0
3211172	2.180000e+00	-1.846967e+01	4.741908e+00	0	0
3213125	2.180000e+00	-2.216415e+01	7.366878e+00	0	0
3215078	2.180000e+00	-1.181691e+01	6.473508e+00	0	0
3217031	2.180000e+00	-1.793202e+01	3.670660e+00	0	0
3218984	2.180000e+00	-2.599187e+01	5.403251e-01	0	0
3220938	2.180000e+00	-3.724909e+01	-1.185464e+00	0	0
3222891	2.180000e+00	-5.704881e+01	-2.782270e+00	0	0
3224844	2.180000e+00	-6.151084e+01	-5.744232e+00	0	0
3226797	2.180000e+00	-5.672534e+01	-1.036711e+01	0	0
3228750	2.180000e+00	-6.137548e+01	-1.244853e+01	0	0
3230703	2.180000e+00	-6.004825e+01	-1.194128e+01	0	0
3232656	2.180000e+00	-5.546414e+01	-8.163248e+00	0	0
3234609	2.180000e+00	-3.273097e+01	-2.099308e+00	0	0
3236563	2.180000e+00	-4.147942e+01	2.807690e+00	0	0
3238516	2.180000e+00	-5.926071e+01	3.674653e+00	0	0
3240469	2.180000e+00	-7.522857e+01	4.952534e+00	0	0
3242422	2.180000e+00	-7.749673e+01	1.008550e+01	0	0
3244375	2.180000e+00	-9.798611e+01	1.199562e+01	0	0
3246328	2.180000e+00	-1.088210e+02	1.305470e+01	0	0
3248281	2.180000e+00	-1.091178e+02	1.113867e+01	0	0
3250234	2.180000e+00	-8.712169e+01	9.512029e+00	0	0
3252188	2.180000e+00	-6.658853e+01	1.089292e+01	0	0
3254141	2.180000e+00	-5.871985e+01	1.049136e+01	0	0
3256094	2.180000e+00	-4.759780e+01	7.754280e+00	0	0
3258047	2.180000e+00	-5.309190e+01	6.255927e+00	0	0
3260000	2.180000e+00	-4.891754e+01	6.754880e+00	0	0
3261953	2.180000e+00	-4.939073e+01	6.237819e+00	0	0
3263906	2.180000e+00	-6.944578e+01	4.552848e+00	0	0
3265859	2.180000e+00	-9.459537e+01	3.966279e+00	0	0
3267813	2.180000e+00	-9.851562e+01	4.057684e+00	0	0
3269766	2.180000e+00	-9.065596e+01	4.067182e+00	0	0
3271719	2.180000e+00	-6.762850e+01	4.104722e+00	0	0
3273672	2.180000e+00	-5.690527e+01	4.115451e+00	0	0
3275625	2.180000e+00	-5.058996e+01	4.152334e+00	0	0
3277578	2.180000e+00	-3.863677e+01	4.009335e+00	0	0
3279531	2.180000e+00	-4.340998e+01	3.198285e+00	0	0
3281484	2.180000e+00	-5.270223e+01	2.288880e+00	0	0
3283438	2.180000e+00	-7.407960e+01	1.522767e+00	0	0
3285391	2.180000e+00	-9.648334e+01	9.022754e-01	0	0
3287344	2.180000e+00	-1.110794e+02	4.763163e-01	0	0
3289297	2.180000e+00	-1.022869e+02	3.314409e-01	0	0
3291250	2.180000e+00	-7.116672e+01	4.818321e-01	0	0
3293203	2.180000e+00	-6.131909e+01	8.691009e-01	0	0
3295156	2.180000e+00	-5.237351e+01	1.453845e+00	0	0
3297109	2.180000e+00	-4.454427e+01	2.191246e+00	0	0
3299063	2.180000e+00	-5.821929e+01	3.079183e+00	0	0
3301016	2.180000e+00	-7.400376e+01	3.913383e+00	0	0
3302969	2.180000e+00	-7.925278e+01	4.198742e+00	0	0
3304922	2.180000e+00	-9.629838e+01	4.169720e+00	0	0
3306875	2.180000e+00	-1.088041e+02	4.167809e+00	0	0
3308828	2.180000e+00	-9.275853e+01	4.151312e+00	0	0
3310781	2.180000e+00	-8.083224e+01	4.138267e+00	0	0
3312734	2.180000e+00	-7.183074e+01	4.124349e+00	0	0
3314688	2.180000e+00	-5.703532e+01	4.111423e+00	0	0
3316641	2.180000e+00	-6.801062e+01	4.096360e+00	0	0
3318594	2.180000e+00	-6.693950e+01	4.089883e+00	0	0
3320547	2.180000e+00	-4.400584e+01	4.052229e+00	0	0
3322500	2.180000e+00	-6.594980e+01	4.140025e+00	0	0
3324453	2.180000e+00	-6.917177e+01	4.548110e+00	0	0
3326406	2.180000e+00	-7.448529e+01	4.709152e+00	0	0
3328359	2.180000e+00	-6.490585e+01	4.594123e+00	0	0
3330313	2.180000e+00	-6.672295e+01	4.310551e+00	0	0
3332266	2.180000e+00	-7.068322e+01	4.046940e+00	0	0
3334219	2.180000e+00	-5.140869e+01	3.983169e+00	0	0
3336172	2.180000e+00	-5.189850e+01	3.976015e+00	0	0
3338125	2.180000e+00	-6.965956e+01	3.963724e+00	0	0
3340078	2.180000e+00	-7.300770e+01	3.953083e+00	0	0
3342031	2.180000e+00	-6.192252e+01	3.942278e+00	0	0
3343984	2.180000e+00	-9.497701e+01	3.931802e+00	0	0
3345938	2.180000e+00	-8.405735e+01	3.921521e+00	0	0
3347891	2.180000e+00	-6.489812e+01	3.911487e+00	0	0
3349844	2.180000e+00	-5.501025e+01	3.901688e+00	0	0
3351797	2.180000e+00	-5.959429e+01	3.892130e+00	0	0
3353750	2.180000e+00	-4.694624e+01	3.882818e+00	0	0
3355703	2.180000e+00	-4.680761e+01	3.873756e+00	0	0
3357656	2.180000e+00	-4.707843e+01	3.864947e+00	0	0
3359609	2.180000e+00	-3.869678e+01	3.856395e+00	0	0
3361563	2.180000e+00	-6.090926e+01	3.848101e+00	0	0
3363516	2.180000e+00	-7.044898e+01	3.840078e+00	0	0
3365469	2.180000e+00	-8.116383e+01	3.832324e+00	0	0
3367422	2.180000e+00	-7.857755e+01	3.824844e+00	0	0
3369375	2.180000e+00	-5.209035e+01	3.817642e+00	0	0
3371328	2.180000e+00	-6.772286e+01	3.810723e+00	0	0
3373281	2.180000e+00	-5.450519e+01	3.804090e+00	0	0
3375234	2.180000e+00	-3.052850e+01	3.797747e+00	0	0
3377188	2.180000e+00	-5.176475e+01	3.791695e+00	0	0
3379141	2.180000e+00	-4.776849e+01	3.785945e+00	0	0
3381094	2.180000e+00	-7.341603e+01	3.780498e+00	0	0
3383047	2.180000e+00	-8.388660e+01	3.775358e+00	0	0
3385000	2.180000e+00	-7.778507e+01	3.770528e+00	0	0
3386953	2.180000e+00	-7.483059e+01	3.766013e+00	0	0
3388906	2.180000e+00	-6.389426e+01	3.761818e+00	0	0
3390859	2.180000e+00	-5.022772e+01	3.757945e+00	0	0
3392813	2.180000e+00	-3.719424e+01	3.754397e+00	0	0
3394766	2.180000e+00	-3.964781e+01	3.751187e+00	0	0
3396719	2.180000e+00	-4.922957e+01	3.748289e+00	0	0
3398672	2.180000e+00	-5.806200e+01	3.745554e+00	0	0
3400625	2.180000e+00	-5.726962e+01	3.742891e+00	0	0
3402578	2.180000e+00	-6.867275e+01	3.740308e+00	0	0
3404531	2.180000e+00	-7.029652e+01	3.737769e+00	0	0
3406484	2.180000e+00	-7.207120e+01	3.735255e+00	0	0
3408438	2.180000e+00	-7.499760e+01	3.732766e+00	0	0
3410391	2.180000e+00	-5.862999e+01	3.730305e+00	0	0
3412344	2.180000e+00	-4.804316e+01	3.727871e+00	0	0
3414297	2.180000e+00	-4.177436e+01	3.725461e+00	0	0
3416250	2.180000e+00	-3.479865e+01	3.723087e+00	0	0
3418203	2.180000e+00	-6.387372e+01	3.720703e+00	0	0
3420156	2.180000e+00	-7.007890e+01	3.718477e+00	0	0
3422109	2.180000e+00	-5.458491e+01	3.715785e+00	0	0
3424063	2.180000e+00	-7.119568e+01	3.714959e+00	0	0
3426016	2.180000e+00	-7.289672e+01	3.707282e+00	0	0
3427969	2.180000e+00	-6.845360e+01	3.725308e+00	0	0
3429922	2.180000e+00	-6.696534e+01	3.640128e+00	0	0
3431875	2.180000e+00	-7.793614e+01	3.275073e+00	0	0
3433828	2.180000e+00	-5.717190e+01	2.982754e+00	0	0
3435781	2.180000e+00	-4.929443e+01	2.736364e+00	0	0
3437734	2.180000e+00	-6.226785e+01	2.546988e+00	0	0
3439688	2.180000e+00	-5.388452e+01	2.415351e+00	0	0
3441641	2.180000e+00	-4.321770e+01	2.337688e+00	0	0
3443594	2.180000e+00	-7.529221e+01	2.303330e+00	0	0
3445547	2.180000e+00	-8.316722e+01	2.338097e+00	0	0
3447500	2.180000e+00	-8.346288e+01	2.477084e+00	0	0
3449453	2.180000e+00	-7.631054e+01	2.726089e+00	0	0
3451406	2.180000e+00	-5.215180e+01	3.090733e+00	0	0
3453359	2.180000e+00	-4.556239e+01	3.463078e+00	0	0
3455313	2.180000e+00	-2.974377e+01	3.538037e+00	0	0
3457266	2.180000e+00	-4.036873e+01	3.568888e+00	0	0
3459219	2.180000e+00	-6.315334e+01	3.648816e+00	0	0
3461172	2.180000e+00	-6.831038e+01	3.470971e+00	0	0
3463125	2.180000e+00	-7.270786e+01	3.459207e+00	0	0
3465078	2.180000e+00	-9.883202e+01	3.433151e+00	0	0
3467031	2.180000e+00	-7.216391e+01	3.413119e+00	0	0
3468984	2.180000e+00	-9.098746e+01	3.390073e+00	0	0
3470938	2.180000e+00	-9.244807e+01	3.373884e+00	0	0
3472891	2.180000e+00	-5.558221e+01	3.399399e+00	0	0
3474844	2.180000e+00	-5.628097e+01	2.993739e+00	0	0
3476797	2.180000e+00	-6.798116e+01	2.140175e+00	0	0
3478750	2.180000e+00	-6.612646e+01	2.155882e+00	0	0
3480703	2.180000e+00	-7.121794e+01	2.981279e+00	0	0
3482656	2.180000e+00	-8.069627e+01	5.026061e+00	0	0
3484609	2.180000e+00	-7.240119e+01	6.844478e+00	0	0
3486563	2.180000e+00	-6.225135e+01	6.530046e+00	0	0
3488516	2.180000e+00	-4.136802e+01	6.373008e+00	0	0
3490469	2.180000e+00	-1.947385e+01	5.747600e+00	0	0
3492422	2.180000e+00	4.957155e+00	5.786413e+00	0	0
3494375	2.180000e+00	5.020588e+01	7.841622e+00	0	0
3496328	2.180000e+00	7.715554e+01	9.217503e+00	0	0
3498281	2.180000e+00	6.060745e+01	1.020489e+01	0	0
3500234	2.180000e+00	9.356179e+01	1.031144e+01	0	0
3502188	2.180000e+00	9.589121e+01	8.067031e+00	0	0
3504141	2.180000e+00	8.414554e+01	4.490447e+00	0	0
3506094	2.180000e+00	7.286169e+01	3.001092e+00	0	0
3508047	2.180000e+00	8.312829e+01	3.302502e+00	0	0
3510000	2.180000e+00	9.069262e+01	2.444652e+00	0	0
3511953	2.180000e+00	1.154743e+02	-1.529089e+00	0	0
3513906	2.180000e+00	1.597431e+02	-5.249522e+00	0	0
3515859	2.180000e+00	1.457479e+02	-6.426728e+00	0	0
3517813	2.180000e+00	1.473480e+02	-4.980031e+00	0	0
3519766	2.180000e+00	1.380246e+02	-1.645228e+00	0	0
3521719	2.180000e+00	1.222092e+02	6.780299e-01	0	0
3523672	2.180000e+00	1.452516e+02	5.169418e-01	0	0
3525625	2.180000e+00	1.267980e+02	8.395110e-01	0	0
3527578	2.180000e+00	1.427943e+02	1.554223e+00	0	0
3529531	2.180000e+00	1.859135e+02	4.081252e+00	0	0
3531484	2.180000e+00	1.811759e+02	6.911601e+00	0	0
3533438	2.180000e+00	2.049855e+02	7.803877e+00	0	0
3535391	2.180000e+00	2.126903e+02	7.400688e+00	0	0
3537344	2.180000e+00	1.935107e+02	5.605490e+00	0	0
3539297	2.180000e+00	1.788880e+02	3.247983e+00	0	0
3541250	2.180000e+00	1.423333e+02	2.528780e+00	0	0
3543203	2.180000e+00	1.276796e+02	2.583472e+00	0	0
3545156	2.180000e+00	1.233722e+02	2.532781e+00	0	0
3547109	2.180000e+00	1.223035e+02	2.547263e+00	0	0
3549063	2.180000e+00	1.441404e+02	2.392538e+00	0	0
3551016	2.180000e+00	1.308918e+02	1.702240e+00	0	0
3552969	2.180000e+00	1.211113e+02	1.112751e+00	0	0
3554922	2.180000e+00	1.161233e+02	1.013342e+00	0	0
3556875	2.180000e+00	6.599310e+01	1.272053e+00	0	0
3558828	2.180000e+00	2.011478e+01	2.018289e+00	0	0
3560781	2.180000e+00	2.855409e+01	2.739007e+00	0	0
3562734	2.180000e+00	9.365247e-01	2.617906e+00	0	0
3564688	2.180290e+00	-3.507660e+01	2.515151e+00	0	0
3566641	2.181000e+00	-3.263224e+01	2.392639e+00	0	0
3568594	2.180710e+00	-2.999313e+01	2.336831e+00	0	0
3570547	2.180000e+00	-7.657434e+01	2.327339e+00	0	0
3572500	2.180000e+00	-6.589159e+01	2.313102e+00	0	0
3574453	2.180000e+00	-6.007756e+01	2.301841e+00	0	0
3576406	2.180000e+00	-7.348805e+01	2.291522e+00	0	0
3578359	2.180291e+00	-6.465042e+01	2.282721e+00	0	0
3580313	2.181000e+00	-7.520292e+01	2.275316e+00	0	0
3582266	2.181000e+00	-9.016769e+01	2.269366e+00	0	0
3584219	2.181000e+00	-1.017664e+02	2.264932e+00	0	0
3586172	2.181000e+00	-1.040713e+02	2.261863e+00	0	0
3588125	2.181000e+00	-1.013169e+02	2.260850e+00	0	0
3590078	2.181000e+00	-9.265265e+01	2.258738e+00	0	0
3592031	2.181000e+00	-8.536196e+01	2.208719e+00	0	0
3593984	2.181000e+00	-8.977371e+01	2.096436e+00	0	0
3595938	2.181000e+00	-9.473666e+01	1.995063e+00	0	0
3597891	2.181000e+00	-8.996420e+01	1.893062e+00	0	0
3599844	2.181000e+00	-1.132837e+02	1.793451e+00	0	0
3601797	2.181000e+00	-1.310813e+02	1.738433e+00	0	0
3603750	2.181000e+00	-1.333535e+02	1.746951e+00	0	0
3605703	2.181000e+00	-1.518925e+02	1.735922e+00	0	0
3607656	2.181000e+00	-1.468236e+02	1.720235e+00	0	0
3609609	2.181000e+00	-1.202628e+02	1.670154e+00	0	0
3611563	2.181000e+00	-1.026042e+02	1.669844e+00	0	0
3613516	2.181000e+00	-8.922583e+01	1.813322e+00	0	0
3615469	2.181000e+00	-9.046873e+01	1.933524e+00	0	0
3617422	2.181000e+00	-8.809716e+01	2.091502e+00	0	0
3619375	2.181000e+00	-1.149125e+02	2.288790e+00	0	0
3621328	2.181000e+00	-1.309160e+02	2.433382e+00	0	0
3623281	2.181000e+00	-1.257738e+02	2.410048e+00	0	0
3625234	2.181000e+00	-1.353155e+02	2.410847e+00	0	0
3627188	2.181000e+00	-1.464187e+02	2.412414e+00	0	0
3629141	2.181000e+00	-1.214439e+02	2.382019e+00	0	0
3631094	2.181000e+00	-1.099945e+02	2.143600e+00	0	0
3633047	2.181000e+00	-1.143401e+02	1.742108e+00	0	0
3635000	2.181000e+00	-1.001970e+02	1.309722e+00	0	0
3636953	2.181000e+00	-1.025691e+02	7.451870e-01	0	0
3638906	2.181000e+00	-1.255641e+02	3.462319e-02	0	0
3640859	2.181000e+00	-1.072040e+02	-4.184696e-01	0	0
3642813	2.181000e+00	-1.135963e+02	-3.212076e-02	0	0
3644766	2.181000e+00	-1.342516e+02	5.957981e-01	0	0
3646719	2.181000e+00	-1.714872e+02	1.357743e+00	0	0
3648672	2.181000e+00	-2.080381e+02	2.349973e+00	0	0
3650625	2.181000e+00	-2.077483e+02	2.740053e+00	0	0
3652578	2.181000e+00	-1.730730e+02	1.331530e+00	0	0
3654531	2.181000e+00	-1.166278e+02	1.219960e-02	0	0
3656484	2.181000e+00	-4.693251e+01	-4.061267e-01	0	0
3658438	2.181000e+00	2.299618e+01	-1.101344e-01	0	0
3660391	2.181000e+00	1.043489e+02	6.754563e-01	0	0
3662344	2.181000e+00	1.767107e+02	1.036729e+00	0	0
3664297	2.181000e+00	3.326985e+02	1.061708e+00	0	0
3666250	2.181000e+00	5.980980e+02	5.315060e-01	0	0
3668203	2.181000e+00	8.929244e+02	3.497099e-01	0	0
3670156	2.181296e+00	1.130626e+03	4.985048e+00	0	0
3672109	2.181704e+00	1.399160e+03	8.028488e+00	0	0
3674063	2.181000e+00	1.695284e+03	4.323643e-01	0	0
3676016	2.181000e+00	1.869895e+03	-6.420591e+00	0	0
3677969	2.181297e+00	1.895338e+03	-1.218924e+01	0	0
3679922	2.182000e+00	1.761420e+03	-1.339357e+01	0	0
3681875	2.182000e+00	1.508888e+03	-4.332233e+00	0	0
3683828	2.182000e+00	1.178249e+03	1.385383e+01	0	0
3685781	2.182000e+00	9.420884e+02	2.872788e+01	0	0
3687734	2.182000e+00	7.224986e+02	4.225207e+01	0	0
3689688	2.182000e+00	5.469089e+02	6.359579e+01	0	0
3691641	2.182000e+00	2.533960e+02	5.147254e+01	0	0
3693594	2.182000e+00	-4.258102e+01	6.157462e+00	0	0
3695547	2.182000e+00	-1.723827e+02	-4.444229e+01	0	0
3697500	2.182000e+00	-2.261652e+02	-9.560393e+01	0	0
3699453	2.182000e+00	-2.409041e+02	-1.099711e+02	0	0
3701406	2.182000e+00	-2.036044e+02	-8.030377e+01	0	0
3703359	2.182000e+00	-1.546286e+02	-3.650203e+01	0	0
3705313	2.182000e+00	-1.531545e+02	2.706226e+00	0	0
3707266	2.182000e+00	-1.015608e+02	4.063347e+01	0	0
3709219	2.182000e+00	-5.234536e+01	4.586497e+01	0	0
3711172	2.182000e+00	-5.318098e+01	3.255041e+01	0	0
3713125	2.182000e+00	-4.272636e+01	1.811426e+01	0	0
3715078	2.182000e+00	-1.087810e+01	1.299994e+01	0	0
3717031	2.182000e+00	-2.429343e+01	1.923919e-01	0	0
3718984	2.182000e+00	-3.977896e+01	-3.182486e+00	0	0
3720938	2.182000e+00	-5.398849e+01	-2.153727e+00	0	0
3722891	2.182000e+00	-7.690982e+01	8.532710e-01	0	0
3724844	2.182000e+00	-7.285094e+01	4.101448e+00	0	0
3726797	2.182000e+00	-6.816233e+01	5.540118e+00	0	0
3728750	2.182000e+00	-6.581416e+01	4.126298e+00	0	0
3730703	2.182000e+00	-7.202368e+01	2.078199e+00	0	0
3732656	2.182000e+00	-5.777023e+01	3.155880e+00	0	0
3734609	2.182000e+00	-3.730956e+01	3.730060e+00	0	0
3736563	2.182000e+00	-3.277567e+01	4.421168e+00	0	0
3738516	2.182000e+00	-3.963532e+01	4.923279e+00	0	0
3740469	2.182000e+00	-4.673370e+01	4.935452e+00	0	0
3742422	2.182000e+00	-4.075775e+01	4.309553e+00	0	0
3744375	2.182302e+00	-3.506557e+01	3.311479e+00	0	0
3746328	2.183000e+00	-5.508940e+01	1.640120e+00	0	0
3748281	2.183000e+00	-6.414736e+01	1.121965e+00	0	0
3750234	2.183000e+00	-5.996469e+01	6.722247e+00	0	0
3752188	2.183000e+00	-6.578085e+01	7.625117e+00	0	0
3754141	2.183000e+00	-3.288212e+01	-1.266402e+00	0	0
3756094	2.183000e+00	-1.362621e+01	-4.803952e+00	0	0
3758047	2.183000e+00	-3.526267e+01	-8.868499e+00	0	0
3760000	2.183000e+00	-2.854875e+01	-5.744451e+00	0	0
3761953	2.183000e+00	-3.051193e+01	5.910813e+00	0	0
3763906	2.183000e+00	-5.918102e+01	2.038248e+01	0	0
3765859	2.183000e+00	-3.862520e+01	2.993188e+01	0	0
3767813	2.183000e+00	-4.860758e+01	4.107064e+01	0	0
3769766	2.183000e+00	-2.721620e+01	5.924422e+01	0	0
3771719	2.183000e+00	-1.448385e+01	4.223746e+01	0	0
3773672	2.183000e+00	-1.101641e+01	-1.112356e+01	0	0
3775625	2.183000e+00	-7.993286e+00	-6.396381e+01	0	0
3777578	2.183000e+00	-1.342391e+01	-1.141052e+02	0	0
3779531	2.183000e+00	-1.015852e+01	-1.150333e+02	0	0
3781484	2.183000e+00	-6.830228e+00	-7.509773e+01	0	0
3783438	2.183000e+00	-2.118894e+01	-2.818328e+01	0	0
3785391	2.183000e+00	-1.858794e+01	1.211523e+01	0	0
3787344	2.183000e+00	-1.692087e+01	4.950589e+01	0	0
3789297	2.183000e+00	-1.855060e+01	5.259361e+01	0	0
3791250	2.183000e+00	-8.412377e+00	3.572120e+01	0	0
3793203	2.183000e+00	-2.617027e+00	1.896510e+01	0	0
3795156	2.183000e+00	2.521825e+01	8.347153e+00	0	0
3797109	2.183000e+00	2.371039e+01	-6.587505e+00	0	0
3799063	2.183306e+00	3.259208e+01	-7.547573e+00	0	0
3801016	2.184000e+00	1.896535e+01	-5.687139e+00	0	0
3802969	2.184000e+00	1.890429e+01	-4.048573e+00	0	0
3804922	2.184000e+00	5.509870e+00	-2.634609e+00	0	0
3806875	2.184000e+00	-2.040769e+00	-3.549478e-01	0	0
3808828	2.184000e+00	8.415882e+00	5.691234e+00	0	0
3810781	2.184000e+00	1.781107e+01	1.027380e+01	0	0
3812734	2.184000e+00	4.137451e+01	8.033854e+00	0	0
3814688	2.184000e+00	4.269970e+01	4.126396e+00	0	0
3816641	2.184000e+00	4.258400e+01	2.121362e+00	0	0
3818594	2.184000e+00	7.218138e+01	3.057871e+00	0	0
3820547	2.184000e+00	6.881589e+01	4.474284e+00	0	0
3822500	2.184000e+00	6.829323e+01	5.527541e+00	0	0
3824453	2.184000e+00	6.515064e+01	7.384819e+00	0	0
3826406	2.184000e+00	5.519459e+01	5.709880e+00	0	0
3828359	2.184000e+00	6.665120e+01	1.959834e+00	0	0
3830313	2.184000e+00	6.323227e+01	7.206831e-01	0	0
3832266	2.184000e+00	6.273702e+01	-6.121029e-01	0	0
3834219	2.184000e+00	6.937174e+01	-1.465072e+00	0	0
3836172	2.184000e+00	1.209350e+02	-1.957964e+00	0	0
3838125	2.184000e+00	1.255010e+02	-2.486520e+00	0	0
3840078	2.184000e+00	1.287048e+02	-2.741960e+00	0	0
3842031	2.184000e+00	1.288373e+02	-2.340355e+00	0	0
3843984	2.184000e+00	1.011158e+02	-2.482399e+00	0	0
3845938	2.184309e+00	9.076459e+01	-2.310655e+00	0	0
3847891	2.185000e+00	8.532938e+01	-1.939527e+00	0	0
3849844	2.185000e+00	1.149218e+02	-1.670399e+00	0	0
3851797	2.185000e+00	1.365318e+02	-6.999800e-01	0	0
3853750	2.185000e+00	1.641528e+02	1.015408e+00	0	0
3855703	2.185000e+00	1.845588e+02	6.610370e-01	0	0
3857656	2.185000e+00	1.578535e+02	-7.403819e-03	0	0
3859609	2.185000e+00	1.682451e+02	3.590174e-01	0	0
3861563	2.185000e+00	1.670340e+02	4.563258e-01	0	0
3863516	2.185000e+00	1.773655e+02	1.008685e+00	0	0
3865469	2.185000e+00	1.797794e+02	6.275980e-01	0	0
3867422	2.185000e+00	1.852800e+02	-1.878691e+00	0	0
3869375	2.185000e+00	2.124109e+02	-4.090182e+00	0	0
3871328	2.185000e+00	2.103047e+02	-5.292101e+00	0	0
3873281	2.185000e+00	2.395457e+02	-5.396653e+00	0	0
3875234	2.185000e+00	2.535832e+02	-4.576539e+00	0	0
3877188	2.185000e+00	2.725087e+02	-2.903886e+00	0	0
3879141	2.185000e+00	2.708899e+02	-8.986014e-01	0	0
3881094	2.185000e+00	2.651505e+02	-9.501334e-02	0	0
3883047	2.185000e+00	2.619405e+02	-9.390261e-02	0	0
3885000	2.185312e+00	2.736517e+02	1.705774e-01	0	0
3886953	2.186000e+00	2.882725e+02	2.149398e+00	0	0
3888906	2.186000e+00	3.064507e+02	7.107132e+00	0	0
3890859	2.186000e+00	3.037883e+02	1.061601e+01	0	0
3892813	2.186000e+00	3.260902e+02	1.260369e+01	0	0
3894766	2.186000e+00	3.652669e+02	1.289072e+01	0	0
3896719	2.186000e+00	3.911213e+02	1.147266e+01	0	0
3898672	2.186000e+00	3.956283e+02	8.100916e+00	0	0
3900625	2.186000e+00	3.960348e+02	3.363044e+00	0	0
3902578	2.186000e+00	4.055645e+02	6.045291e-01	0	0
3904531	2.186000e+00	3.950436e+02	1.129844e+00	0	0
3906484	2.186000e+00	4.206941e+02	3.841416e-01	0	0
3908438	2.186000e+00	4.478643e+02	-2.982715e+00	0	0
3910391	2.186000e+00	4.601261e+02	-6.440186e+00	0	0
3912344	2.186000e+00	4.736330e+02	-7.898645e+00	0	0
3914297	2.186000e+00	5.083185e+02	-7.498926e+00	0	0
3916250	2.186000e+00	5.138588e+02	-5.630700e+00	0	0
3918203	2.186000e+00	5.174425e+02	-2.592904e+00	0	0
3920156	2.186000e+00	5.203542e+02	-3.646983e-01	0	0
3922109	2.186315e+00	5.296782e+02	-1.222044e+00	0	0
3924063	2.187000e+00	5.380478e+02	-1.386174e+00	0	0
3926016	2.187000e+00	5.634406e+02	-1.057357e+00	0	0
3927969	2.187000e+00	5.709237e+02	1.205617e+00	0	0
3929922	2.187000e+00	5.699994e+02	3.812409e+00	0	0
3931875	2.187000e+00	5.874656e+02	4.676509e+00	0	0
3933828	2.187000e+00	5.890067e+02	3.744916e+00	0	0
3935781	2.187000e+00	6.066338e+02	2.002759e+00	0	0
3937734	2.187000e+00	6.282348e+02	1.645051e+00	0	0
3939688	2.187000e+00	6.165445e+02	1.742106e+00	0	0
3941641	2.187000e+00	6.078589e+02	1.762592e+00	0	0
3943594	2.187000e+00	5.835989e+02	1.775799e+00	0	0
3945547	2.187000e+00	5.325189e+02	1.764496e+00	0	0
3947500	2.187000e+00	5.508475e+02	1.735868e+00	0	0
3949453	2.187000e+00	5.370293e+02	1.689738e+00	0	0
3951406	2.187000e+00	4.931233e+02	1.628281e+00	0	0
3953359	2.187000e+00	4.703430e+02	1.548457e+00	0	0
3955313	2.187318e+00	4.644408e+02	1.466955e+00	0	0
3957266	2.188000e+00	4.366030e+02	1.429587e+00	0	0
3959219	2.188000e+00	3.900171e+02	1.417037e+00	0	0
3961172	2.188000e+00	3.648780e+02	1.407389e+00	0	0
3963125	2.188000e+00	3.069752e+02	1.372712e+00	0	0
3965078	2.188000e+00	2.845450e+02	1.443197e+00	0	0
3967031	2.188000e+00	2.660375e+02	1.713160e+00	0	0
3968984	2.188000e+00	2.460379e+02	1.812404e+00	0	0
3970938	2.188000e+00	2.166229e+02	1.829048e+00	0	0
3972891	2.188000e+00	2.189617e+02	1.666052e+00	0	0
3974844	2.188000e+00	2.082165e+02	1.345991e+00	0	0
3976797	2.188000e+00	1.567549e+02	1.279991e+00	0	0
3978750	2.188000e+00	1.307492e+02	1.236182e+00	0	0
3980703	2.188000e+00	1.064875e+02	1.138675e+00	0	0
3982656	2.188000e+00	9.480552e+01	1.048215e+00	0	0
3984609	2.188319e+00	6.197515e+01	9.486004e-01	0	0
3986563	2.189000e+00	4.933284e+01	8.623789e-01	0	0
3988516	2.189000e+00	3.363515e+01	7.156467e-01	0	0
3990469	2.189000e+00	4.263993e+01	7.821173e-01	0	0
3992422	2.189000e+00	3.924441e+01	-2.698696e-02	0	0
3994375	2.189000e+00	4.770912e+01	-1.971201e+00	0	0
3996328	2.189000e+00	3.717404e+01	-1.029181e+00	0	0
3998281	2.189000e+00	5.558859e+00	3.930823e-01	0	0
4000234	2.189000e+00	5.036488e+00	7.553386e-02	0	0
4002188	2.189000e+00	-1.202760e+01	-1.544201e-01	0	0
4004141	2.189000e+00	-3.424897e+01	-3.936604e-01	0	0
4006094	2.189000e+00	-4.981355e+01	1.010167e+00	0	0
4008047	2.189000e+00	-3.701508e+01	2.858010e+00	0	0
4010000	2.189000e+00	-1.955302e+01	3.288047e+00	0	0
4011953	2.189000e+00	-2.447176e+01	1.690861e+00	0	0
4013906	2.189322e+00	-2.741813e+00	-1.605326e+00	0	0
4015859	2.190000e+00	-1.217087e+01	-3.666262e+00	0	0
4017813	2.190000e+00	-1.133439e+01	-3.860922e+00	0	0
4019766	2.190000e+00	-1.153845e+01	-4.160997e+00	0	0
4021719	2.190000e+00	-3.999907e+01	-4.943897e+00	0	0
4023672	2.190000e+00	-3.597786e+01	-6.376791e+00	0	0
4025625	2.190000e+00	-2.503258e+01	-5.888508e+00	0	0
4027578	2.190000e+00	-2.990603e+01	-5.061402e+00	0	0
4029531	2.190000e+00	-4.732836e+01	-4.906911e+00	0	0
4031484	2.190000e+00	-2.959950e+01	-4.611190e+00	0	0
4033438	2.190000e+00	-4.897885e+01	-4.166751e+00	0	0
4035391	2.190000e+00	-2.954778e+01	-3.594923e+00	0	0
4037344	2.190000e+00	-4.489716e-01	-2.885601e+00	0	0
4039297	2.190000e+00	-1.807306e+01	-2.204409e+00	0	0
4041250	2.190000e+00	-3.965647e+01	-1.993416e+00	0	0
4043203	2.190324e+00	-4.580035e+01	-2.100979e+00	0	0
4045156	2.191000e+00	-7.034497e+01	-2.134602e+00	0	0
4047109	2.191000e+00	-7.255764e+01	-2.260245e+00	0	0
4049063	2.191000e+00	-6.283033e+01	-2.038630e+00	0	0
4051016	2.191000e+00	-4.043121e+01	-1.004795e+00	0	0
4052969	2.191000e+00	-2.120303e+01	-4.178683e-02	0	0
4054922	2.191000e+00	-1.723720e+01	8.856303e-01	0	0
4056875	2.191000e+00	-2.490756e+01	1.730769e+00	0	0
4058828	2.191000e+00	-3.707745e+01	2.538501e+00	0	0
4060781	2.191000e+00	-1.790517e+01	3.001165e+00	0	0
4062734	2.191000e+00	-2.646117e+01	3.053506e+00	0	0
4064688	2.191000e+00	-3.346264e+01	3.468290e+00	0	0
4066641	2.191326e+00	-3.305921e+01	4.105110e+00	0	0
4068594	2.192000e+00	-4.624677e+01	4.848073e+00	0	0
4070547	2.192000e+00	-4.147183e+01	4.940962e+00	0	0
4072500	2.192000e+00	-3.739418e+01	4.169981e+00	0	0
4074453	2.192000e+00	-1.770151e+01	4.258357e+00	0	0
4076406	2.192000e+00	-2.352066e+01	5.143381e+00	0	0
4078359	2.192000e+00	-3.495569e+01	4.885393e+00	0	0
4080313	2.192000e+00	-2.360714e+01	4.817443e+00	0	0
4082266	2.192000e+00	-2.318624e+01	5.352785e+00	0	0
4084219	2.192000e+00	-3.184574e+01	7.699743e+00	0	0
4086172	2.192000e+00	-6.117659e+01	1.221790e+01	0	0
4088125	2.192000e+00	-5.137050e+01	1.572034e+01	0	0
4090078	2.192000e+00	-5.071679e+01	1.729874e+01	0	0
4092031	2.192327e+00	-3.062240e+01	1.698522e+01	0	0
4093984	2.193000e+00	-4.172697e+01	1.461804e+01	0	0
4095938	2.193000e+00	-3.804446e+01	1.237177e+01	0	0
4097891	2.193000e+00	-5.068860e+01	1.301179e+01	0	0
4099844	2.193000e+00	-7.836147e+01	1.387928e+01	0	0
4101797	2.193000e+00	-7.165680e+01	1.256198e+01	0	0
4103750	2.193000e+00	-6.153908e+01	7.787538e+00	0	0
4105703	2.193000e+00	-4.439037e+01	4.562097e+00	0	0
4107656	2.193000e+00	-4.010552e+01	2.429561e+00	0	0
4109609	2.193000e+00	-1.541220e+01	1.786169e+00	0	0
4111563	2.193000e+00	2.154470e+01	1.475078e+00	0	0
4113516	2.193000e+00	1.744623e+01	1.037317e+00	0	0
4115469	2.193000e+00	1.745318e+01	1.107341e+00	0	0
4117422	2.193329e+00	1.550490e+01	1.607255e+00	0	0
4119375	2.194000e+00	-3.610068e+01	2.509581e+00	0	0
4121328	2.194000e+00	-4.816633e+01	3.963567e+00	0	0
4123281	2.194000e+00	-3.741530e+01	6.598906e+00	0	0
4125234	2.194000e+00	-3.539080e+01	4.789899e+00	0	0
4127188	2.194000e+00	-3.478424e+01	1.635066e-01	0	0
4129141	2.194000e+00	-1.473952e+01	4.215438e+00	0	0
4131094	2.194000e+00	1.836413e+01	1.293371e+01	0	0
4133047	2.194000e+00	2.824719e+01	2.227079e+01	0	0
4135000	2.194000e+00	2.690713e+01	2.472261e+01	0	0
4136953	2.194000e+00	1.803261e+01	2.704073e+01	0	0
4138906	2.194331e+00	7.881146e+00	2.702813e+01	0	0
4140859	2.195000e+00	2.227499e+01	2.340630e+01	0	0
4142813	2.195000e+00	1.271691e+01	1.622106e+01	0	0
4144766	2.195000e+00	6.322507e+00	6.411897e+00	0	0
4146719	2.195000e+00	-1.439470e+01	-3.778443e+00	0	0
4148672	2.195000e+00	-3.514248e+01	-1.821181e+01	0	0
4150625	2.195000e+00	-1.961601e+01	-3.592132e+01	0	0
4152578	2.195000e+00	2.192948e+00	-5.693764e+01	0	0
4154531	2.195000e+00	7.598364e+00	-9.693399e+01	0	0
4156484	2.195000e+00	1.818666e-01	-1.233539e+02	0	0
4158438	2.195333e+00	-2.541857e+01	-1.075003e+02	0	0
4160391	2.196000e+00	-4.256074e+01	-4.947699e+01	0	0
4162344	2.196000e+00	-5.429469e+01	1.495639e+01	0	0
4164297	2.196000e+00	-8.649499e+01	6.962061e+01	0	0
4166250	2.196000e+00	-1.030993e+02	1.083893e+02	0	0
4168203	2.196000e+00	-1.389349e+02	1.064674e+02	0	0
4170156	2.196000e+00	-1.831583e+02	6.713783e+01	0	0
4172109	2.196000e+00	-1.762415e+02	1.879892e+01	0	0
4174063	2.196000e+00	-1.688321e+02	-1.637580e+01	0	0
4176016	2.196000e+00	-1.809336e+02	-4.795488e+01	0	0
4177969	2.196000e+00	-1.667786e+02	-5.063032e+01	0	0
4179922	2.196000e+00	-1.233070e+02	-4.300482e+01	0	0
4181875	2.196334e+00	-6.672780e+01	-3.696579e+01	0	0
4183828	2.197000e+00	-8.947138e+00	-3.141022e+01	0	0
4185781	2.197000e+00	1.739972e+01	-2.726525e+01	0	0
4187734	2.197000e+00	-1.063422e+00	-2.509995e+01	0	0
4189688	2.197000e+00	-3.595332e+01	-2.478380e+01	0	0
4191641	2.197000e+00	-3.191449e+01	-2.401344e+01	0	0
4193594	2.197000e+00	-1.021720e+01	-1.963592e+01	0	0
4195547	2.197000e+00	-6.858997e+00	-1.154759e+01	0	0
4197500	2.197000e+00	-8.352301e+00	-4.947440e+00	0	0
4199453	2.197000e+00	-2.239691e+01	-6.059072e-01	0	0
4201406	2.197000e+00	-2.172554e+01	-3.068663e-01	0	0
4203359	2.197336e+00	-2.189382e+01	-2.775635e+00	0	0
4205313	2.198000e+00	1.764593e+01	1.553735e+00	0	0
4207266	2.198000e+00	3.228656e+01	8.007448e+00	0	0
4209219	2.198000e+00	2.962464e+01	1.328792e+01	0	0
4211172	2.198000e+00	4.573778e+01	1.727359e+01	0	0
4213125	2.198000e+00	3.309545e+01	1.956959e+01	0	0
4215078	2.198000e+00	4.449444e+01	2.039249e+01	0	0
4217031	2.198000e+00	1.005681e+01	2.041804e+01	0	0
4218984	2.198000e+00	-4.514865e+01	1.954422e+01	0	0
4220938	2.198000e+00	-4.274666e+01	1.666104e+01	0	0
4222891	2.198337e+00	-6.183703e+01	1.036349e+01	0	0
4224844	2.199000e+00	-6.463491e+01	1.766632e+00	0	0
4226797	2.199000e+00	-4.667614e+01	-2.067913e+00	0	0
4228750	2.199000e+00	-2.580354e+01	-5.042493e+00	0	0
4230703	2.199000e+00	-1.141125e+01	-1.451294e+01	0	0
4232656	2.199000e+00	1.908667e+01	-2.107014e+01	0	0
4234609	2.199000e+00	3.370046e+01	-2.424373e+01	0	0
4236563	2.199000e+00	3.744793e+01	-2.352536e+01	0	0
4238516	2.199000e+00	4.782434e+01	-1.925438e+01	0	0
4240469	2.199000e+00	4.461234e+01	-1.208664e+01	0	0
4242422	2.199000e+00	3.725238e+01	-7.034136e+00	0	0
4244375	2.199339e+00	1.144064e+01	-8.429779e+00	0	0
4246328	2.200000e+00	-1.981102e+00	-6.087994e+00	0	0
4248281	2.200000e+00	2.588216e+01	8.732450e-01	0	0
4250234	2.200000e+00	5.952854e+01	5.005492e+00	0	0
4252188	2.200000e+00	9.532521e+01	5.726836e+00	0	0
4254141	2.200000e+00	1.486452e+02	2.760253e+00	0	0
4256094	2.200000e+00	1.547573e+02	-2.975387e+00	0	0
4258047	2.200000e+00	1.527542e+02	-6.709641e+00	0	0
4260000	2.200000e+00	1.323915e+02	-5.749758e+00	0	0
4261953	2.200340e+00	1.254346e+02	-8.236682e+00	0	0
4263906	2.201000e+00	1.477975e+02	-1.330749e+01	0	0
4265859	2.201000e+00	1.491728e+02	-1.521903e+01	0	0
4267813	2.201000e+00	1.431044e+02	-1.421357e+01	0	0
4269766	2.201000e+00	1.479488e+02	-9.621068e+00	0	0
4271719	2.201000e+00	1.450014e+02	-5.027129e+00	0	0
4273672	2.201000e+00	1.584464e+02	-4.085105e+00	0	0
4275625	2.201000e+00	1.742518e+02	-3.918660e+00	0	0
4277578	2.201341e+00	1.816232e+02	-3.733090e+00	0	0
4279531	2.202000e+00	1.844613e+02	-3.307809e+00	0	0
4281484	2.202000e+00	1.804124e+02	-1.476977e+00	0	0
4283438	2.202000e+00	1.842477e+02	1.199949e+00	0	0
4285391	2.202000e+00	1.914640e+02	3.211292e+00	0	0
4287344	2.202000e+00	1.612917e+02	4.610726e+00	0	0
4289297	2.202000e+00	1.423000e+02	5.204347e+00	0	0
4291250	2.202000e+00	1.433987e+02	5.139649e+00	0	0
4293203	2.202000e+00	1.583267e+02	4.703520e+00	0	0
4295156	2.202000e+00	1.663461e+02	4.058894e+00	0	0
4297109	2.202000e+00	1.656061e+02	3.201754e+00	0	0
4299063	2.202343e+00	1.814212e+02	2.329111e+00	0	0
4301016	2.203000e+00	1.962679e+02	1.061058e+00	0	0
4302969	2.203000e+00	1.783770e+02	-3.973687e-01	0	0
4304922	2.203000e+00	1.696316e+02	-4.729697e-01	0	0
4306875	2.203000e+00	1.912439e+02	-2.016951e-01	0	0
4308828	2.203000e+00	1.631322e+02	3.149567e-01	0	0
4310781	2.203000e+00	1.354756e+02	-4.113406e-01	0	0
4312734	2.203344e+00	1.087487e+02	-3.591860e+00	0	0
4314688	2.203656e+00	9.086438e+01	-5.662726e+00	0	0
4316641	2.203344e+00	7.658224e+01	-6.486955e+00	0	0
4318594	2.204000e+00	6.096818e+01	-5.773222e+00	0	0
4320547	2.204000e+00	3.837435e+01	-3.490420e+00	0	0
4322500	2.204000e+00	2.370542e+01	1.491016e-01	0	0
4324453	2.204000e+00	-3.762799e+00	2.609696e+00	0	0
4326406	2.204000e+00	-1.833739e+01	2.515228e+00	0	0
4328359	2.204000e+00	-1.724726e+00	2.878518e+00	0	0
4330313	2.204000e+00	-2.768399e+01	3.056737e+00	0	0
4332266	2.204000e+00	-3.819272e+01	4.840432e+00	0	0
4334219	2.204346e+00	-3.143391e+01	8.532172e+00	0	0
4336172	2.205000e+00	-3.818452e+01	1.113758e+01	0	0
4338125	2.205000e+00	-3.292373e+01	1.324555e+01	0	0
4340078	2.205000e+00	-4.806555e+01	1.407780e+01	0	0
4342031	2.205000e+00	-6.655340e+01	1.253525e+01	0	0
4343984	2.205000e+00	-6.684469e+01	7.761256e+00	0	0
4345938	2.205000e+00	-6.700393e+01	3.367524e+00	0	0
4347891	2.205000e+00	-6.618864e+01	3.871216e+00	0	0
4349844	2.205347e+00	-5.753743e+01	1.908238e+00	0	0
4351797	2.206000e+00	-6.009181e+01	-4.270764e+00	0	0
4353750	2.206000e+00	-5.626968e+01	-8.473268e+00	0	0
4355703	2.206000e+00	-5.285437e+01	-1.027284e+01	0	0
4357656	2.206000e+00	-7.023642e+01	-9.313295e+00	0	0
4359609	2.206000e+00	-9.163730e+01	-5.292998e+00	0	0
4361563	2.206000e+00	-7.903124e+01	4.682381e-01	0	0
4363516	2.206000e+00	-1.129800e+02	3.263799e+00	0	0
4365469	2.206348e+00	-1.707042e+02	2.863503e+00	0	0
4367422	2.207000e+00	-2.104982e+02	6.289163e+00	0	0
4369375	2.207000e+00	-2.623452e+02	1.281449e+01	0	0
4371328	2.207000e+00	-2.918049e+02	1.652868e+01	0	0
4373281	2.207000e+00	-2.935683e+02	1.670459e+01	0	0
4375234	2.207000e+00	-2.250862e+02	1.336241e+01	0	0
4377188	2.207000e+00	-1.752110e+02	6.927740e+00	0	0
4379141	2.207000e+00	-1.332376e+02	2.517627e+00	0	0
4381094	2.207000e+00	-8.897201e+01	3.452786e+00	0	0
4383047	2.207000e+00	-4.284768e+01	-2.204188e-01	0	0
4385000	2.207349e+00	1.042333e+01	-6.252591e+00	0	0
4386953	2.208000e+00	4.784463e+00	-8.827349e+00	0	0
4388906	2.208000e+00	-1.038829e+01	-8.052024e+00	0	0
4390859	2.208000e+00	1.015670e+01	-3.862713e+00	0	0
4392813	2.208000e+00	5.090666e+00	2.126706e+00	0	0
4394766	2.208000e+00	-1.682175e+01	5.465233e+00	0	0
4396719	2.208000e+00	-2.824631e+01	4.653747e+00	0	0
4398672	2.208000e+00	-6.827539e+01	7.777857e+00	0	0
4400625	2.208351e+00	-1.006253e+02	1.402701e+01	0	0
4402578	2.209000e+00	-1.736552e+02	1.771213e+01	0	0
4404531	2.209000e+00	-1.920260e+02	1.967721e+01	0	0
4406484	2.209000e+00	-1.649870e+02	1.949356e+01	0	0
4408438	2.209000e+00	-1.448901e+02	1.714163e+01	0	0
4410391	2.209000e+00	-5.979261e+01	1.228455e+01	0	0
4412344	2.209000e+00	3.878433e+01	8.298865e+00	0	0
4414297	2.209000e+00	1.484021e+02	8.156960e+00	0	0
4416250	2.209352e+00	2.238017e+02	5.419806e+00	0	0
4418203	2.210000e+00	3.257008e+02	7.416560e-02	0	0
4420156	2.210000e+00	5.452891e+02	-3.196257e+00	0	0
4422109	2.210000e+00	8.220752e+02	-5.293909e+00	0	0
4424063	2.210000e+00	1.081646e+03	-5.947268e+00	0	0
4426016	2.210000e+00	1.352216e+03	-4.350975e+00	0	0
4427969	2.210000e+00	1.595490e+03	6.589288e+00	0	0
4429922	2.210353e+00	1.826443e+03	1.778278e+01	0	0
4431875	2.211000e+00	1.948229e+03	2.439445e+01	0	0
4433828	2.211000e+00	1.885481e+03	3.656753e+01	0	0
4435781	2.211000e+00	1.724560e+03	3.336653e+01	0	0
4437734	2.211000e+00	1.423368e+03	1.817218e+01	0	0
4439688	2.211000e+00	1.126093e+03	2.236048e+00	0	0
