time	gsr	ecg	emg_trapezius	emg_corrugator	emg_zygomaticus
703	2.202000e+00	1.177861e+02	4.608869e+00	0	0
2656	2.202000e+00	1.059129e+02	4.488588e+00	0	0
4609	2.202000e+00	1.088869e+02	4.224084e+00	0	0
6563	2.202000e+00	1.002287e+02	4.087872e+00	0	0
8516	2.202000e+00	9.667063e+01	4.541356e+00	0	0
10469	2.202000e+00	9.173137e+01	4.726465e+00	0	0
12422	2.202000e+00	9.039805e+01	3.637242e+00	0	0
14375	2.202000e+00	1.030497e+02	1.997044e+00	0	0
16328	2.202000e+00	1.163140e+02	8.931593e-01	0	0
18281	2.201641e+00	1.356620e+02	2.136464e-01	0	0
20234	2.201359e+00	1.390406e+02	2.522150e-02	0	0
22188	2.202000e+00	1.419885e+02	1.458154e-01	0	0
24141	2.202000e+00	1.335398e+02	2.178427e-01	0	0
26094	2.202000e+00	1.349779e+02	3.039904e-01	0	0
28047	2.201641e+00	1.341417e+02	3.890833e-01	0	0
30000	2.201359e+00	1.269176e+02	4.708559e-01	0	0
31953	2.201641e+00	1.255981e+02	5.732285e-01	0	0
33906	2.201359e+00	1.320969e+02	5.854265e-01	0	0
35859	2.201641e+00	1.460360e+02	5.989509e-02	0	0
37813	2.201000e+00	1.686625e+02	-8.740845e-01	0	0
39766	2.201000e+00	1.805174e+02	-1.715841e+00	0	0
41719	2.201000e+00	1.800983e+02	-2.537686e+00	0	0
43672	2.201000e+00	1.770343e+02	-3.258611e+00	0	0
45625	2.201000e+00	1.740829e+02	-3.718445e+00	0	0
47578	2.201000e+00	1.768758e+02	-3.549893e+00	0	0
49531	2.201000e+00	1.710323e+02	-2.711700e+00	0	0
51484	2.201000e+00	1.758122e+02	-1.306396e+00	0	0
53438	2.201000e+00	1.872491e+02	2.623069e-01	0	0
55391	2.201000e+00	2.002814e+02	9.135556e-01	0	0
57344	2.201000e+00	2.138906e+02	8.130100e-01	0	0
59297	2.201000e+00	2.293156e+02	8.381206e-01	0	0
61250	2.201000e+00	2.373673e+02	8.430081e-01	0	0
63203	2.201000e+00	2.390227e+02	1.613679e+00	0	0
65156	2.201000e+00	2.445212e+02	3.078957e+00	0	0
67109	2.201000e+00	2.379934e+02	3.842323e+00	0	0
69063	2.201000e+00	2.366482e+02	4.026991e+00	0	0
71016	2.201000e+00	2.456480e+02	3.869748e+00	0	0
72969	2.201000e+00	2.468576e+02	3.640562e+00	0	0
74922	2.201000e+00	2.683944e+02	3.189969e+00	0	0
76875	2.201000e+00	2.888873e+02	2.424263e+00	0	0
78828	2.201000e+00	3.165771e+02	1.737296e+00	0	0
80781	2.201000e+00	3.249721e+02	1.698286e+00	0	0
82734	2.201000e+00	3.303668e+02	1.792197e+00	0	0
84688	2.201000e+00	3.303864e+02	1.831290e+00	0	0
86641	2.201000e+00	3.316413e+02	1.838979e+00	0	0
88594	2.201000e+00	3.313265e+02	1.812105e+00	0	0
90547	2.201000e+00	3.342247e+02	1.731962e+00	0	0
92500	2.201000e+00	3.625158e+02	1.668271e+00	0	0
94453	2.201000e+00	3.762028e+02	1.333361e+00	0	0
96406	2.201000e+00	3.996598e+02	8.752732e-01	0	0
98359	2.201000e+00	4.272100e+02	-1.909168e-01	0	0
100313	2.201000e+00	4.399800e+02	-2.414839e+00	0	0
102266	2.201000e+00	4.436287e+02	-3.603623e+00	0	0
104219	2.201000e+00	4.536320e+02	-4.309786e+00	0	0
106172	2.201000e+00	4.606984e+02	-4.778518e+00	0	0
108125	2.201000e+00	4.586841e+02	-4.580672e+00	0	0
110078	2.201000e+00	4.673213e+02	-3.798842e+00	0	0
112031	2.201000e+00	4.790826e+02	-2.551248e+00	0	0
113984	2.201000e+00	4.967603e+02	-9.123812e-01	0	0
115938	2.201000e+00	5.204508e+02	8.335537e-01	0	0
117891	2.201000e+00	5.420687e+02	1.628004e+00	0	0
119844	2.201000e+00	5.677448e+02	1.700553e+00	0	0
121797	2.201000e+00	5.801475e+02	1.417503e+00	0	0
123750	2.201000e+00	5.833436e+02	3.349425e+00	0	0
125703	2.201000e+00	6.011728e+02	8.642808e+00	0	0
127656	2.201000e+00	6.037118e+02	1.120015e+01	0	0
129609	2.201000e+00	6.031452e+02	1.136654e+01	0	0
131563	2.201000e+00	6.135747e+02	9.337316e+00	0	0
133516	2.201000e+00	6.283346e+02	4.826707e+00	0	0
135469	2.201000e+00	6.516553e+02	1.177166e+00	0	0
137422	2.201000e+00	6.690781e+02	1.690124e+00	0	0
139375	2.201000e+00	6.878148e+02	9.934947e-01	0	0
141328	2.201000e+00	7.009714e+02	-2.007892e+00	0	0
143281	2.201000e+00	6.993877e+02	-5.644360e+00	0	0
145234	2.201000e+00	6.886298e+02	-6.495423e+00	0	0
147188	2.201000e+00	6.829986e+02	-5.313548e+00	0	0
149141	2.201000e+00	6.739626e+02	-2.495770e+00	0	0
151094	2.201000e+00	6.527232e+02	2.325279e-01	0	0
153047	2.201000e+00	6.398166e+02	1.051914e+00	0	0
155000	2.201000e+00	6.326648e+02	1.153852e+00	0	0
156953	2.201000e+00	6.238714e+02	1.014028e+00	0	0
158906	2.201000e+00	6.116730e+02	1.587101e+00	0	0
160859	2.201000e+00	5.804667e+02	2.473477e+00	0	0
162813	2.201000e+00	5.547111e+02	1.591836e+00	0	0
164766	2.201000e+00	5.140540e+02	1.085621e+00	0	0
166719	2.201000e+00	4.702731e+02	1.155329e+00	0	0
168672	2.201000e+00	4.348255e+02	1.255154e+00	0	0
170625	2.201000e+00	4.000336e+02	1.612406e+00	0	0
172578	2.201000e+00	3.742951e+02	1.577806e+00	0	0
174531	2.201000e+00	3.531724e+02	1.275752e+00	0	0
176484	2.201000e+00	3.278262e+02	1.244761e+00	0	0
178438	2.201000e+00	3.124433e+02	1.279214e+00	0	0
180391	2.201000e+00	2.990396e+02	1.310031e+00	0	0
182344	2.201000e+00	2.713682e+02	1.345995e+00	0	0
184297	2.201000e+00	2.380344e+02	1.384421e+00	0	0
186250	2.201000e+00	2.044016e+02	1.425510e+00	0	0
188203	2.201000e+00	1.820894e+02	1.469374e+00	0	0
190156	2.201000e+00	1.626763e+02	1.513591e+00	0	0
192109	2.200635e+00	1.358322e+02	1.565968e+00	0	0
194063	2.200000e+00	1.320657e+02	1.589797e+00	0	0
196016	2.200366e+00	1.303899e+02	1.423499e+00	0	0
197969	2.201000e+00	1.220311e+02	1.162721e+00	0	0
199922	2.201000e+00	1.239617e+02	1.061303e+00	0	0
201875	2.201000e+00	1.189730e+02	1.070383e+00	0	0
203828	2.200634e+00	9.712480e+01	1.203601e+00	0	0
205781	2.200366e+00	9.876954e+01	1.454578e+00	0	0
207734	2.200634e+00	8.214419e+01	1.830468e+00	0	0
209688	2.200000e+00	5.683697e+01	2.058220e+00	0	0
211641	2.200000e+00	6.222524e+01	2.155670e+00	0	0
213594	2.200000e+00	5.272684e+01	1.883768e+00	0	0
215547	2.200000e+00	5.989942e+01	8.343388e-01	0	0
217500	2.200000e+00	6.456723e+01	1.165438e+00	0	0
219453	2.200000e+00	6.943266e+01	2.168755e+00	0	0
221406	2.200000e+00	7.269934e+01	1.913598e+00	0	0
223359	2.200000e+00	7.194214e+01	1.917054e+00	0	0
225313	2.200000e+00	5.123178e+01	1.764697e+00	0	0
227266	2.200000e+00	4.028726e+01	2.018861e+00	0	0
229219	2.200000e+00	4.608046e+01	3.435706e+00	0	0
231172	2.200000e+00	3.556920e+01	4.623439e+00	0	0
233125	2.200000e+00	3.676381e+01	3.810304e+00	0	0
235078	2.200000e+00	4.289275e+01	2.247833e+00	0	0
237031	2.200000e+00	5.013411e+01	1.986187e+00	0	0
238984	2.200000e+00	6.290777e+01	2.250185e+00	0	0
240938	2.200000e+00	6.153864e+01	2.345967e+00	0	0
242891	2.200000e+00	5.851038e+01	2.636191e+00	0	0
244844	2.200000e+00	4.597260e+01	1.979292e+00	0	0
246797	2.200000e+00	3.731976e+01	3.570786e-02	0	0
248750	2.200000e+00	3.293691e+01	-1.717995e-01	0	0
250703	2.200000e+00	2.621497e+01	1.399666e+00	0	0
252656	2.200000e+00	2.842527e+01	2.520989e+00	0	0
254609	2.200000e+00	3.118335e+01	2.194347e+00	0	0
256563	2.200000e+00	4.199232e+01	2.124260e+00	0	0
258516	2.200000e+00	5.554159e+01	1.925293e+00	0	0
260469	2.200000e+00	5.576506e+01	2.791013e+00	0	0
262422	2.200000e+00	5.398946e+01	4.270152e+00	0	0
264375	2.200000e+00	4.575735e+01	3.512364e+00	0	0
266328	2.200000e+00	3.746109e+01	1.860009e+00	0	0
268281	2.200000e+00	3.697391e+01	1.034016e+00	0	0
270234	2.200000e+00	2.436607e+01	6.766363e-01	0	0
272188	2.200000e+00	2.133363e+01	4.754548e-01	0	0
274141	2.200000e+00	2.959025e+01	5.396101e-01	0	0
276094	2.200000e+00	3.859446e+01	5.565776e-01	0	0
278047	2.200000e+00	5.271530e+01	5.870505e-01	0	0
280000	2.200000e+00	5.528909e+01	6.146828e-01	0	0
281953	2.200000e+00	5.082684e+01	6.440952e-01	0	0
283906	2.200000e+00	4.567245e+01	6.730804e-01	0	0
285859	2.200000e+00	3.645747e+01	7.057773e-01	0	0
287813	2.200000e+00	2.526156e+01	7.277738e-01	0	0
289766	2.200000e+00	2.205829e+01	7.925683e-01	0	0
291719	2.200000e+00	2.278560e+01	6.769673e-01	0	0
293672	2.200000e+00	2.812473e+01	1.377964e-01	0	0
295625	2.200000e+00	3.303598e+01	-4.338804e-01	0	0
297578	2.200000e+00	3.846342e+01	-9.295671e-01	0	0
299531	2.200000e+00	4.835153e+01	-1.268072e+00	0	0
301484	2.200000e+00	4.721756e+01	-1.399809e+00	0	0
303438	2.200000e+00	4.286992e+01	-1.417027e+00	0	0
305391	2.200000e+00	4.727541e+01	-1.284754e+00	0	0
307344	2.200000e+00	3.276576e+01	-1.014398e+00	0	0
309297	2.200000e+00	1.670223e+01	-6.855781e-01	0	0
311250	2.200000e+00	2.422704e+01	-3.145340e-01	0	0
313203	2.200000e+00	2.546998e+01	1.542620e-01	0	0
315156	2.200000e+00	3.271542e+01	7.079895e-01	0	0
317109	2.200000e+00	5.273615e+01	1.298710e+00	0	0
319063	2.200000e+00	7.159560e+01	2.047942e+00	0	0
321016	2.200000e+00	6.350444e+01	2.683795e+00	0	0
322969	2.200000e+00	5.934574e+01	2.888145e+00	0	0
324922	2.200000e+00	5.339601e+01	3.189494e+00	0	0
326875	2.200000e+00	4.857064e+01	3.479907e+00	0	0
328828	2.200000e+00	4.554504e+01	3.784206e+00	0	0
330781	2.200000e+00	3.944385e+01	4.091646e+00	0	0
332734	2.200000e+00	3.771701e+01	4.400994e+00	0	0
334688	2.200000e+00	4.239221e+01	4.708687e+00	0	0
336641	2.200000e+00	6.238557e+01	5.011127e+00	0	0
338594	2.200000e+00	7.402118e+01	5.305931e+00	0	0
340547	2.200000e+00	7.130214e+01	5.586647e+00	0	0
342500	2.200000e+00	6.761627e+01	5.838791e+00	0	0
344453	2.200000e+00	5.924061e+01	6.054136e+00	0	0
346406	2.200000e+00	5.259108e+01	6.231632e+00	0	0
348359	2.200000e+00	4.762250e+01	6.368973e+00	0	0
350313	2.200000e+00	3.620024e+01	6.464231e+00	0	0
352266	2.200000e+00	4.216418e+01	6.515246e+00	0	0
354219	2.200000e+00	5.478166e+01	6.520053e+00	0	0
356172	2.200000e+00	6.183108e+01	6.476574e+00	0	0
358125	2.200000e+00	7.309723e+01	6.382910e+00	0	0
360078	2.200000e+00	7.374821e+01	6.236495e+00	0	0
362031	2.200000e+00	7.546736e+01	6.037526e+00	0	0
363984	2.200000e+00	7.245746e+01	5.793997e+00	0	0
365938	2.200000e+00	6.218028e+01	5.512601e+00	0	0
367891	2.200000e+00	5.646181e+01	5.195751e+00	0	0
369844	2.200000e+00	5.156643e+01	4.846907e+00	0	0
371797	2.200000e+00	4.536870e+01	4.467379e+00	0	0
373750	2.200000e+00	4.400335e+01	4.054363e+00	0	0
375703	2.200000e+00	4.818683e+01	3.608068e+00	0	0
377656	2.199627e+00	6.257429e+01	3.132398e+00	0	0
379609	2.199000e+00	7.199246e+01	2.630410e+00	0	0
381563	2.199374e+00	7.166374e+01	2.105835e+00	0	0
383516	2.199626e+00	6.554689e+01	1.560263e+00	0	0
385469	2.199000e+00	5.471366e+01	1.005360e+00	0	0
387422	2.199374e+00	4.953995e+01	4.124913e-01	0	0
389375	2.200000e+00	3.639350e+01	-7.658269e-02	0	0
391328	2.199626e+00	3.846787e+01	-1.083311e-01	0	0
393281	2.199374e+00	4.221793e+01	1.400658e-01	0	0
395234	2.200000e+00	3.949047e+01	3.559701e-01	0	0
397188	2.200000e+00	5.599232e+01	5.794737e-01	0	0
399141	2.199626e+00	5.810825e+01	8.556966e-01	0	0
401094	2.199000e+00	5.229941e+01	9.316669e-01	0	0
403047	2.199374e+00	5.187817e+01	5.122545e-01	0	0
405000	2.199626e+00	3.487048e+01	3.975350e-02	0	0
406953	2.199000e+00	3.231296e+01	-5.169652e-01	0	0
408906	2.199000e+00	3.224681e+01	-1.254631e+00	0	0
410859	2.199000e+00	2.798773e+01	-1.960617e+00	0	0
412813	2.199000e+00	1.972921e+01	-2.674441e+00	0	0
414766	2.199000e+00	2.841341e+01	-3.381154e+00	0	0
416719	2.199000e+00	4.382746e+01	-4.084930e+00	0	0
418672	2.199000e+00	5.478518e+01	-4.770856e+00	0	0
420625	2.199000e+00	5.807427e+01	-5.475592e+00	0	0
422578	2.199000e+00	4.727339e+01	-5.783766e+00	0	0
424531	2.199000e+00	3.221088e+01	-5.626725e+00	0	0
426484	2.199000e+00	1.775579e+01	-5.718084e+00	0	0
428438	2.199000e+00	1.671137e+01	-5.958972e+00	0	0
430391	2.199000e+00	1.281186e+01	-6.178157e+00	0	0
432344	2.199000e+00	8.287456e+00	-6.246666e+00	0	0
434297	2.199000e+00	2.173484e+01	-6.406072e+00	0	0
436250	2.199000e+00	3.216437e+01	-6.510062e+00	0	0
438203	2.199000e+00	3.910849e+01	-5.794533e+00	0	0
440156	2.199000e+00	4.680012e+01	-5.050356e+00	0	0
442109	2.199000e+00	4.239620e+01	-4.200673e+00	0	0
444063	2.199000e+00	3.867189e+01	-1.980630e+00	0	0
446016	2.199000e+00	3.274711e+01	-3.196656e-01	0	0
447969	2.199000e+00	2.273020e+01	2.893973e-01	0	0
449922	2.199000e+00	1.298208e+01	-2.987886e-01	0	0
451875	2.199000e+00	6.828133e+00	-7.594533e-01	0	0
453828	2.199000e+00	1.470906e+01	-2.158359e+00	0	0
455781	2.199000e+00	1.565571e+01	-4.853018e+00	0	0
457734	2.199000e+00	2.973557e+01	-5.786420e+00	0	0
459688	2.199000e+00	4.359872e+01	-3.936474e+00	0	0
461641	2.199000e+00	3.717014e+01	-2.296538e+00	0	0
463594	2.199000e+00	3.232374e+01	-8.589909e-01	0	0
465547	2.199000e+00	3.003455e+01	1.887631e-01	0	0
467500	2.199000e+00	2.488114e+01	5.974659e-01	0	0
469453	2.199000e+00	1.002980e+01	5.398502e-01	0	0
471406	2.199000e+00	6.701446e+00	-3.753960e-01	0	0
473359	2.199000e+00	9.538650e+00	4.803727e-01	0	0
475313	2.199000e+00	2.092262e+01	8.897115e+00	0	0
477266	2.199000e+00	3.015334e+01	1.151491e+01	0	0
479219	2.199000e+00	3.653970e+01	2.786955e+00	0	0
481172	2.199000e+00	3.697664e+01	-1.369908e+00	0	0
483125	2.199000e+00	2.893806e+01	-2.688214e+00	0	0
485078	2.199000e+00	2.369911e+01	2.695320e+00	0	0
487031	2.199000e+00	1.620494e+01	1.768032e+01	0	0
488984	2.199000e+00	1.339795e+01	3.326090e+01	0	0
490938	2.199000e+00	-2.255437e+00	4.533122e+01	0	0
492891	2.199000e+00	-7.522490e-01	6.826836e+01	0	0
494844	2.199000e+00	1.135165e+01	8.546643e+01	0	0
496797	2.199000e+00	1.448253e+01	6.375219e+01	0	0
498750	2.199000e+00	3.511169e+01	1.329350e+01	0	0
500703	2.199000e+00	2.905790e+01	-4.856684e+01	0	0
502656	2.199000e+00	2.490974e+01	-1.052131e+02	0	0
504609	2.199000e+00	2.527939e+01	-1.162093e+02	0	0
506563	2.199000e+00	6.417122e+00	-8.755461e+01	0	0
508516	2.199000e+00	1.893436e+00	-4.987827e+01	0	0
510469	2.199000e+00	1.328132e+00	-1.043079e+01	0	0
512422	2.199000e+00	-7.164661e+00	3.014699e+01	0	0
514375	2.199000e+00	6.610691e+00	4.356774e+01	0	0
516328	2.199000e+00	1.848089e+01	3.763699e+01	0	0
518281	2.199000e+00	3.203324e+01	2.453445e+01	0	0
520234	2.199000e+00	5.150611e+01	2.004900e+01	0	0
522188	2.199000e+00	5.184094e+01	1.326450e+01	0	0
524141	2.199000e+00	6.243727e+01	7.028446e+00	0	0
526094	2.199000e+00	8.820132e+01	4.873817e+00	0	0
528047	2.199000e+00	1.056634e+02	6.720666e-01	0	0
530000	2.199000e+00	1.122047e+02	-1.939902e-02	0	0
531953	2.199000e+00	1.207410e+02	-1.310007e-02	0	0
533906	2.199000e+00	1.386469e+02	-3.611648e-01	0	0
535859	2.199000e+00	1.409265e+02	-8.375838e-01	0	0
537813	2.199000e+00	1.476752e+02	-1.286032e+00	0	0
539766	2.199000e+00	1.616908e+02	-1.613365e+00	0	0
541719	2.199000e+00	1.689440e+02	-1.847090e+00	0	0
543672	2.199000e+00	1.616640e+02	-1.962770e+00	0	0
545625	2.199000e+00	1.648730e+02	-1.971616e+00	0	0
547578	2.199000e+00	1.735545e+02	-1.877027e+00	0	0
549531	2.199000e+00	1.737354e+02	-1.682195e+00	0	0
551484	2.199000e+00	1.708720e+02	-1.400895e+00	0	0
553438	2.199000e+00	1.693271e+02	-1.034761e+00	0	0
555391	2.199000e+00	1.887080e+02	-5.518690e-01	0	0
557344	2.199000e+00	2.092143e+02	7.373211e-02	0	0
559297	2.199000e+00	2.266147e+02	8.740828e-01	0	0
561250	2.199000e+00	2.249609e+02	1.852556e+00	0	0
563203	2.199000e+00	2.416358e+02	2.974594e+00	0	0
565156	2.199000e+00	2.356662e+02	4.207795e+00	0	0
567109	2.199000e+00	2.178498e+02	5.518071e+00	0	0
569063	2.199000e+00	2.116721e+02	6.853870e+00	0	0
571016	2.199000e+00	1.992262e+02	8.249756e+00	0	0
572969	2.199000e+00	2.142738e+02	9.120486e+00	0	0
574922	2.199000e+00	2.156718e+02	8.983716e+00	0	0
576875	2.199000e+00	2.165019e+02	8.599064e+00	0	0
578828	2.199000e+00	2.276056e+02	8.185663e+00	0	0
580781	2.199000e+00	2.165756e+02	7.758547e+00	0	0
582734	2.199000e+00	2.084578e+02	7.326811e+00	0	0
584688	2.199000e+00	1.882551e+02	6.849391e+00	0	0
586641	2.199000e+00	1.569340e+02	6.499943e+00	0	0
588594	2.199000e+00	1.273470e+02	6.567756e+00	0	0
590547	2.199000e+00	9.937705e+01	6.435584e+00	0	0
592500	2.199000e+00	7.519819e+01	5.374574e+00	0	0
594453	2.199000e+00	7.129774e+01	4.155632e+00	0	0
596406	2.199000e+00	7.683082e+01	3.602858e+00	0	0
598359	2.199000e+00	7.667670e+01	3.128669e+00	0	0
600313	2.199000e+00	6.909531e+01	2.148781e+00	0	0
602266	2.199000e+00	4.185065e+01	1.147360e+00	0	0
604219	2.199000e+00	1.501968e+01	1.245570e+00	0	0
606172	2.199000e+00	9.457538e-01	4.285354e-01	0	0
608125	2.198617e+00	-2.522648e+01	-3.658683e+00	0	0
610078	2.198000e+00	-4.755541e+01	-8.027383e+00	0	0
612031	2.198000e+00	-4.979474e+01	-9.690666e+00	0	0
613984	2.198383e+00	-3.759593e+01	-8.245175e+00	0	0
615938	2.199000e+00	-3.116742e+01	-3.993321e+00	0	0
617891	2.199000e+00	-2.541597e+01	-8.863410e-02	0	0
619844	2.198616e+00	-1.292844e+01	2.323254e-01	0	0
621797	2.198384e+00	-1.543780e+01	7.289016e-01	0	0
623750	2.199000e+00	-3.522970e+01	6.215963e+00	0	0
625703	2.199000e+00	-4.681895e+01	1.325056e+01	0	0
627656	2.199000e+00	-3.943373e+01	1.714703e+01	0	0
629609	2.198616e+00	-4.601535e+01	1.782178e+01	0	0
631563	2.198000e+00	-5.982944e+01	1.537586e+01	0	0
633516	2.198000e+00	-5.156312e+01	1.037279e+01	0	0
635469	2.198000e+00	-4.076510e+01	2.109353e+00	0	0
637422	2.198000e+00	-3.405412e+01	-4.108200e+00	0	0
639375	2.198000e+00	-2.616220e+01	-4.163805e+00	0	0
641328	2.198000e+00	-3.462738e+01	-8.467595e+00	0	0
643281	2.198000e+00	-4.491859e+01	-1.569140e+01	0	0
645234	2.198000e+00	-4.816305e+01	-2.044656e+01	0	0
647188	2.198000e+00	-6.256083e+01	-2.428154e+01	0	0
649141	2.198000e+00	-7.081544e+01	-2.661228e+01	0	0
651094	2.198000e+00	-7.416756e+01	-2.716449e+01	0	0
653047	2.198000e+00	-7.202294e+01	-2.546443e+01	0	0
655000	2.198000e+00	-6.990861e+01	-2.125341e+01	0	0
656953	2.198000e+00	-8.280907e+01	-1.454807e+01	0	0
658906	2.198000e+00	-5.570337e+01	-7.100758e+00	0	0
660859	2.198000e+00	-5.934227e+01	-4.122470e+00	0	0
662813	2.198000e+00	-5.878555e+01	-2.501086e+00	0	0
664766	2.198000e+00	-5.400790e+01	5.034998e+00	0	0
666719	2.198000e+00	-6.663619e+01	1.254081e+01	0	0
668672	2.198000e+00	-7.656324e+01	1.627247e+01	0	0
670625	2.198000e+00	-8.192408e+01	1.592790e+01	0	0
672578	2.198000e+00	-7.847435e+01	1.237521e+01	0	0
674531	2.198000e+00	-7.501565e+01	4.410079e+00	0	0
676484	2.198000e+00	-6.400352e+01	-8.239457e-01	0	0
678438	2.198000e+00	-5.345036e+01	-1.446472e-01	0	0
680391	2.198000e+00	-6.061941e+01	-5.411169e+00	0	0
682344	2.198000e+00	-9.919391e+01	-1.177709e+01	0	0
684297	2.198000e+00	-1.404253e+02	-1.495790e+01	0	0
686250	2.198000e+00	-1.446703e+02	-1.420576e+01	0	0
688203	2.198000e+00	-1.204784e+02	-9.691779e+00	0	0
690156	2.198000e+00	-7.956988e+01	-2.122873e+00	0	0
692109	2.198000e+00	-4.292671e+00	1.377153e+00	0	0
694063	2.198000e+00	9.312901e+01	3.906219e+00	0	0
696016	2.198000e+00	2.134290e+02	1.384936e+01	0	0
697969	2.198000e+00	3.371425e+02	1.976761e+01	0	0
699922	2.198000e+00	5.439042e+02	1.979140e+01	0	0
701875	2.198000e+00	7.939212e+02	1.478736e+01	0	0
703828	2.198000e+00	1.042724e+03	6.904663e+00	0	0
705781	2.198000e+00	1.301932e+03	4.188646e+00	0	0
707734	2.198000e+00	1.551441e+03	2.048185e+00	0	0
709688	2.198000e+00	1.800263e+03	-6.679856e+00	0	0
711641	2.198000e+00	1.933411e+03	-1.147068e+01	0	0
713594	2.198000e+00	1.883443e+03	-1.239267e+01	0	0
715547	2.198000e+00	1.768689e+03	-8.445981e+00	0	0
717500	2.198000e+00	1.495778e+03	5.594632e-01	0	0
719453	2.198000e+00	1.183147e+03	7.926456e+00	0	0
721406	2.198000e+00	9.734442e+02	9.769178e+00	0	0
723359	2.198000e+00	7.567676e+02	1.724477e+01	0	0
725313	2.198000e+00	5.725907e+02	2.798524e+01	0	0
727266	2.198000e+00	2.589887e+02	3.295527e+01	0	0
729219	2.198000e+00	-3.532049e+01	3.315457e+01	0	0
731172	2.198000e+00	-1.336230e+02	2.975600e+01	0	0
733125	2.198000e+00	-1.810938e+02	1.890181e+01	0	0
735078	2.198000e+00	-1.987487e+02	1.328519e+01	0	0
737031	2.198000e+00	-1.566038e+02	1.118341e+01	0	0
738984	2.198000e+00	-1.330951e+02	-3.891885e+00	0	0
740938	2.198000e+00	-1.112743e+02	-1.452551e+01	0	0
742891	2.198000e+00	-5.573795e+01	-2.200741e+01	0	0
744844	2.198000e+00	-4.752993e+01	-2.042486e+01	0	0
746797	2.198000e+00	-3.298132e+01	-9.990745e+00	0	0
748750	2.198000e+00	-1.237295e+01	6.813360e+00	0	0
750703	2.198000e+00	-1.799563e+01	1.859701e+01	0	0
752656	2.198000e+00	-1.343079e+01	3.004188e+01	0	0
754609	2.198000e+00	3.366749e+00	5.509949e+01	0	0
756563	2.198000e+00	1.159147e+01	5.866944e+01	0	0
758516	2.198000e+00	1.567372e+01	1.246023e+01	0	0
760469	2.198000e+00	1.992695e+01	-5.335231e+01	0	0
762422	2.198000e+00	1.617039e+01	-1.027361e+02	0	0
764375	2.198000e+00	1.660741e+00	-1.204475e+02	0	0
766328	2.198000e+00	-3.845416e+00	-8.615523e+01	0	0
768281	2.198000e+00	-1.476464e+01	-3.759827e+01	0	0
770234	2.198000e+00	-3.002466e+01	1.390598e+01	0	0
772188	2.198000e+00	-2.536745e+01	6.193242e+01	0	0
774141	2.198000e+00	-2.705857e+01	7.666202e+01	0	0
776094	2.198000e+00	-1.468817e+01	6.372838e+01	0	0
778047	2.198000e+00	-8.742295e-01	4.140575e+01	0	0
780000	2.198000e+00	-3.583551e+00	2.716539e+01	0	0
781953	2.198000e+00	1.640849e-01	5.884612e+00	0	0
783906	2.198000e+00	-8.389143e+00	-8.049243e+00	0	0
785859	2.198000e+00	-6.614104e+00	-1.285745e+01	0	0
787813	2.198000e+00	-1.105293e+01	-1.349450e+01	0	0
789766	2.198000e+00	-3.404969e+01	-1.351817e+01	0	0
791719	2.198000e+00	-4.120182e+01	-9.055075e+00	0	0
793672	2.198000e+00	-1.447881e+01	1.716334e+00	0	0
795625	2.198000e+00	-9.006450e+00	3.997251e+00	0	0
797578	2.198000e+00	-3.148252e+00	-8.626299e-01	0	0
799531	2.198000e+00	1.887173e+01	1.408959e+00	0	0
801484	2.198000e+00	2.730772e+00	5.042948e+00	0	0
803438	2.198000e+00	-8.714104e-01	6.420521e+00	0	0
805391	2.198000e+00	-7.549483e+00	5.174877e+00	0	0
807344	2.198000e+00	-2.426261e+01	1.504683e+00	0	0
809297	2.198000e+00	-2.153558e+01	-4.308024e+00	0	0
811250	2.198000e+00	-2.987747e+01	-7.038997e+00	0	0
813203	2.198000e+00	-2.325774e+01	-4.357091e+00	0	0
815156	2.198000e+00	-1.382286e+01	-6.213154e+00	0	0
817109	2.198000e+00	-1.027313e+01	-1.058732e+01	0	0
819063	2.198000e+00	6.991619e+00	-1.039828e+01	0	0
821016	2.198000e+00	2.630224e+01	-7.102602e+00	0	0
822969	2.198000e+00	3.824822e+01	2.695603e-01	0	0
824922	2.198000e+00	2.621607e+01	6.936404e+00	0	0
826875	2.198000e+00	1.434833e+01	7.320367e+00	0	0
828828	2.198000e+00	1.237874e+01	7.884488e+00	0	0
830781	2.198000e+00	1.348183e+01	1.065706e+01	0	0
832734	2.198000e+00	1.051542e+01	1.372604e+01	0	0
834688	2.198000e+00	2.817971e+01	1.491400e+01	0	0
836641	2.198000e+00	4.654412e+01	1.375227e+01	0	0
838594	2.198000e+00	5.187905e+01	1.085375e+01	0	0
840547	2.198000e+00	5.861369e+01	7.607939e+00	0	0
842500	2.198000e+00	5.504998e+01	6.083873e+00	0	0
844453	2.198000e+00	5.134085e+01	5.116997e+00	0	0
846406	2.198000e+00	5.121149e+01	4.536642e+00	0	0
848359	2.198000e+00	4.607351e+01	4.833809e+00	0	0
850313	2.198000e+00	4.579641e+01	5.038646e+00	0	0
852266	2.198000e+00	4.245953e+01	5.280125e+00	0	0
854219	2.198000e+00	5.282810e+01	5.531821e+00	0	0
856172	2.198000e+00	7.141478e+01	5.738246e+00	0	0
858125	2.197606e+00	8.930840e+01	5.783075e+00	0	0
860078	2.197394e+00	1.015918e+02	5.754584e+00	0	0
862031	2.198000e+00	8.993371e+01	5.736811e+00	0	0
863984	2.198000e+00	7.661841e+01	5.702824e+00	0	0
865938	2.198000e+00	8.304575e+01	5.653055e+00	0	0
867891	2.198000e+00	9.397838e+01	5.604126e+00	0	0
869844	2.198000e+00	8.810803e+01	5.551068e+00	0	0
871797	2.198000e+00	7.589448e+01	5.501575e+00	0	0
873750	2.198000e+00	9.224866e+01	5.425701e+00	0	0
875703	2.198000e+00	1.029488e+02	5.271992e+00	0	0
877656	2.198000e+00	1.226667e+02	5.094963e+00	0	0
879609	2.198000e+00	1.481399e+02	5.039074e+00	0	0
881563	2.198000e+00	1.533260e+02	5.086759e+00	0	0
883516	2.198000e+00	1.233615e+02	5.105564e+00	0	0
885469	2.198000e+00	9.737391e+01	5.120346e+00	0	0
887422	2.198000e+00	1.220473e+02	5.123692e+00	0	0
889375	2.198000e+00	1.266773e+02	5.116829e+00	0	0
891328	2.198000e+00	1.308300e+02	5.098668e+00	0	0
893281	2.198000e+00	1.405208e+02	5.068742e+00	0	0
895234	2.197604e+00	1.487195e+02	5.026420e+00	0	0
897188	2.197000e+00	1.577506e+02	4.971066e+00	0	0
899141	2.197000e+00	1.923091e+02	4.902196e+00	0	0
901094	2.197396e+00	2.124862e+02	4.818956e+00	0	0
903047	2.197604e+00	2.077052e+02	4.721793e+00	0	0
905000	2.197396e+00	2.209958e+02	4.613542e+00	0	0
906953	2.197604e+00	2.143680e+02	4.496266e+00	0	0
908906	2.197397e+00	2.063315e+02	4.372421e+00	0	0
910859	2.198000e+00	2.193356e+02	4.241979e+00	0	0
912813	2.197603e+00	2.150073e+02	4.110692e+00	0	0
914766	2.197397e+00	2.323425e+02	3.957637e+00	0	0
916719	2.197603e+00	2.666972e+02	3.862982e+00	0	0
918672	2.197000e+00	2.798139e+02	3.528630e+00	0	0
920625	2.197397e+00	2.860340e+02	4.212127e+00	0	0
922578	2.197603e+00	2.871418e+02	6.737183e+00	0	0
924531	2.197000e+00	2.887391e+02	9.147160e+00	0	0
926484	2.197000e+00	2.821691e+02	1.053235e+01	0	0
928438	2.197000e+00	2.790883e+02	9.070067e+00	0	0
930391	2.197000e+00	2.954164e+02	4.942612e+00	0	0
932344	2.197000e+00	3.090865e+02	2.318671e+00	0	0
934297	2.197000e+00	3.304470e+02	3.146051e+00	0	0
936250	2.197000e+00	3.661492e+02	5.005098e-01	0	0
938203	2.197000e+00	4.005111e+02	-5.833166e+00	0	0
940156	2.197000e+00	4.051316e+02	-9.096985e+00	0	0
942109	2.197000e+00	3.878483e+02	-9.399834e+00	0	0
944063	2.197000e+00	4.022370e+02	-5.962613e+00	0	0
946016	2.197000e+00	4.191030e+02	-1.765390e+00	0	0
947969	2.197000e+00	4.267639e+02	-6.552371e-01	0	0
949922	2.197000e+00	4.358057e+02	-1.524768e+00	0	0
951875	2.197000e+00	4.473752e+02	-9.472672e-01	0	0
953828	2.197000e+00	4.613936e+02	1.914597e+00	0	0
955781	2.197000e+00	4.657892e+02	5.043061e+00	0	0
957734	2.197000e+00	4.884586e+02	7.701272e+00	0	0
959688	2.197000e+00	4.955371e+02	9.742546e+00	0	0
961641	2.197000e+00	4.824549e+02	1.088704e+01	0	0
963594	2.197000e+00	4.827964e+02	1.104330e+01	0	0
965547	2.197000e+00	4.988469e+02	1.041731e+01	0	0
967500	2.197000e+00	4.997816e+02	9.313050e+00	0	0
969453	2.197000e+00	5.049124e+02	7.936761e+00	0	0
971406	2.197000e+00	5.136456e+02	6.334995e+00	0	0
973359	2.197000e+00	5.128902e+02	4.737876e+00	0	0
975313	2.197000e+00	5.154513e+02	2.968713e+00	0	0
977266	2.197000e+00	5.091549e+02	-9.620826e-01	0	0
979219	2.197000e+00	5.240766e+02	-4.461964e+00	0	0
981172	2.197000e+00	5.176380e+02	-4.300324e+00	0	0
983125	2.197000e+00	4.861485e+02	-5.476767e+00	0	0
985078	2.197000e+00	4.678530e+02	-1.035141e+01	0	0
987031	2.197000e+00	4.321642e+02	-1.664826e+01	0	0
988984	2.197000e+00	3.792831e+02	-2.118602e+01	0	0
990938	2.197000e+00	3.418742e+02	-2.374502e+01	0	0
992891	2.197000e+00	3.136669e+02	-2.396393e+01	0	0
994844	2.197000e+00	2.902377e+02	-2.209599e+01	0	0
996797	2.197000e+00	2.697677e+02	-1.930796e+01	0	0
998750	2.197000e+00	2.574216e+02	-1.645870e+01	0	0
1000703	2.197000e+00	2.231749e+02	-1.354449e+01	0	0
1002656	2.197000e+00	1.792102e+02	-1.072916e+01	0	0
1004609	2.197000e+00	1.616858e+02	-8.122893e+00	0	0
1006563	2.197000e+00	1.330390e+02	-5.881869e+00	0	0
1008516	2.197000e+00	1.086996e+02	-4.026125e+00	0	0
1010469	2.197000e+00	8.848268e+01	-2.917212e+00	0	0
1012422	2.197000e+00	5.748384e+01	-2.273866e+00	0	0
1014375	2.197000e+00	5.987331e+01	-1.861017e+00	0	0
1016328	2.197000e+00	4.820695e+01	-5.934688e-01	0	0
1018281	2.197000e+00	2.401328e+01	4.798852e+00	0	0
1020234	2.197000e+00	6.761832e+00	1.208512e+01	0	0
1022188	2.197000e+00	-1.292257e+01	1.863693e+01	0	0
1024141	2.197000e+00	-2.975448e+01	2.538274e+01	0	0
1026094	2.197000e+00	-4.936233e+01	3.097244e+01	0	0
1028047	2.197000e+00	-6.413677e+01	3.169088e+01	0	0
1030000	2.197000e+00	-7.324509e+01	2.573342e+01	0	0
1031953	2.197000e+00	-8.806543e+01	1.468431e+01	0	0
1033906	2.197000e+00	-7.531640e+01	-1.590015e-01	0	0
1035859	2.197000e+00	-8.855900e+01	-9.531534e+00	0	0
1037813	2.197000e+00	-9.387770e+01	-1.839507e+01	0	0
1039766	2.197000e+00	-7.713732e+01	-3.442056e+01	0	0
1041719	2.197000e+00	-9.145565e+01	-4.502640e+01	0	0
1043672	2.197000e+00	-9.473941e+01	-5.162438e+01	0	0
1045625	2.197000e+00	-1.077289e+02	-5.252395e+01	0	0
1047578	2.197000e+00	-8.444460e+01	-4.690981e+01	0	0
1049531	2.197000e+00	-7.975707e+01	-2.840066e+01	0	0
1051484	2.197000e+00	-1.086535e+02	-7.709989e+00	0	0
1053438	2.197000e+00	-1.064840e+02	2.120828e+01	0	0
1055391	2.197000e+00	-1.142595e+02	6.142453e+01	0	0
1057344	2.197000e+00	-1.021378e+02	6.736043e+01	0	0
1059297	2.197000e+00	-9.727875e+01	3.996340e+01	0	0
1061250	2.197000e+00	-1.145989e+02	1.735686e+00	0	0
1063203	2.197000e+00	-1.116808e+02	-3.253384e+01	0	0
1065156	2.197000e+00	-1.238965e+02	-5.328624e+01	0	0
1067109	2.197000e+00	-1.630358e+02	-3.237568e+01	0	0
1069063	2.197000e+00	-2.114788e+02	1.258629e+01	0	0
1071016	2.197000e+00	-2.107977e+02	5.850428e+01	0	0
1072969	2.197000e+00	-1.964559e+02	9.207646e+01	0	0
1074922	2.197000e+00	-1.819671e+02	8.501415e+01	0	0
1076875	2.197000e+00	-1.666492e+02	3.369631e+01	0	0
1078828	2.197000e+00	-1.406378e+02	-3.981895e+01	0	0
1080781	2.197000e+00	-1.236963e+02	-1.083191e+02	0	0
1082734	2.197000e+00	-1.265109e+02	-1.667158e+02	0	0
1084688	2.197000e+00	-1.249266e+02	-1.813328e+02	0	0
1086641	2.197000e+00	-1.157910e+02	-1.546524e+02	0	0
1088594	2.197000e+00	-1.279287e+02	-9.794804e+01	0	0
1090547	2.197000e+00	-1.495737e+02	-4.571403e+01	0	0
1092500	2.197000e+00	-1.308977e+02	-1.546227e-01	0	0
1094453	2.197000e+00	-1.230340e+02	5.149576e+01	0	0
1096406	2.197000e+00	-1.431806e+02	8.152610e+01	0	0
1098359	2.197000e+00	-1.358683e+02	9.011518e+01	0	0
1100313	2.197000e+00	-1.255582e+02	9.061518e+01	0	0
1102266	2.197000e+00	-1.272686e+02	9.179590e+01	0	0
1104219	2.197000e+00	-1.377074e+02	8.636097e+01	0	0
1106172	2.197000e+00	-1.572076e+02	6.895782e+01	0	0
1108125	2.197000e+00	-1.453640e+02	3.957490e+01	0	0
1110078	2.197000e+00	-1.539229e+02	2.339047e+00	0	0
1112031	2.197000e+00	-1.547362e+02	-3.944587e+01	0	0
1113984	2.197000e+00	-1.456659e+02	-4.259213e+01	0	0
1115938	2.197000e+00	-1.523731e+02	-7.633975e+01	0	0
1117891	2.197000e+00	-1.380863e+02	-1.512614e+02	0	0
1119844	2.197000e+00	-1.278502e+02	-1.552452e+02	0	0
1121797	2.197000e+00	-1.401269e+02	-1.362465e+02	0	0
1123750	2.197000e+00	-1.431822e+02	-1.534452e+02	0	0
1125703	2.197000e+00	-1.519395e+02	-2.083579e+02	0	0
1127656	2.197000e+00	-1.471269e+02	-8.046713e+01	0	0
1129609	2.197000e+00	-1.423089e+02	5.588982e+01	0	0
1131563	2.197000e+00	-1.479751e+02	1.532904e+02	0	0
1133516	2.197000e+00	-1.664839e+02	3.030254e+02	0	0
1135469	2.197000e+00	-1.693625e+02	2.545097e+02	0	0
1137422	2.197000e+00	-1.561481e+02	1.526574e+02	0	0
1139375	2.197000e+00	-1.485034e+02	6.694591e+01	0	0
1141328	2.197000e+00	-1.609696e+02	-4.410902e+01	0	0
1143281	2.197000e+00	-1.848033e+02	-1.287010e+02	0	0
1145234	2.197000e+00	-1.777978e+02	-1.382949e+02	0	0
1147188	2.197000e+00	-1.993578e+02	-9.401416e+01	0	0
1149141	2.197000e+00	-2.160460e+02	-4.073837e+01	0	0
1151094	2.197000e+00	-1.934171e+02	-5.745716e+00	0	0
1153047	2.197000e+00	-1.665697e+02	8.543708e+00	0	0
1155000	2.197000e+00	-1.695054e+02	4.529585e+00	0	0
1156953	2.197000e+00	-1.430133e+02	-9.924743e+00	0	0
1158906	2.197000e+00	-1.160740e+02	-1.568555e+01	0	0
1160859	2.197000e+00	-1.329141e+02	-2.360288e+01	0	0
1162813	2.197000e+00	-1.334315e+02	-2.919161e+01	0	0
1164766	2.197000e+00	-1.317302e+02	-2.360722e+01	0	0
1166719	2.197000e+00	-1.685634e+02	-1.884120e+01	0	0
1168672	2.197000e+00	-1.820567e+02	-1.190533e+01	0	0
1170625	2.197000e+00	-2.011519e+02	4.646809e+00	0	0
1172578	2.197000e+00	-1.968122e+02	6.176794e+00	0	0
1174531	2.197000e+00	-1.682201e+02	-1.286166e+00	0	0
1176484	2.197000e+00	-1.548563e+02	-1.685710e+01	0	0
1178438	2.197000e+00	-1.548531e+02	-2.527637e+01	0	0
1180391	2.197000e+00	-1.446860e+02	-3.156711e+01	0	0
1182344	2.197000e+00	-1.622148e+02	-4.946402e+01	0	0
1184297	2.197000e+00	-1.680573e+02	-6.515432e+01	0	0
1186250	2.197000e+00	-1.562324e+02	-7.644013e+01	0	0
1188203	2.197000e+00	-1.614572e+02	-6.857278e+01	0	0
1190156	2.197000e+00	-1.396430e+02	-3.756559e+01	0	0
1192109	2.197000e+00	-1.649140e+02	-2.370990e+00	0	0
1194063	2.197000e+00	-1.870370e+02	3.687308e+01	0	0
1196016	2.197000e+00	-2.158482e+02	7.661330e+01	0	0
1197969	2.197000e+00	-2.029096e+02	6.283506e+01	0	0
1199922	2.197000e+00	-1.909481e+02	1.375606e+01	0	0
1201875	2.197000e+00	-1.661937e+02	-4.968537e+01	0	0
1203828	2.197000e+00	-1.432503e+02	-1.105584e+02	0	0
1205781	2.197000e+00	-1.688455e+02	-1.161927e+02	0	0
1207734	2.197000e+00	-1.636832e+02	-6.765880e+01	0	0
1209688	2.197000e+00	-1.545995e+02	-3.855086e+00	0	0
1211641	2.197000e+00	-1.726606e+02	4.979485e+01	0	0
1213594	2.196590e+00	-1.395024e+02	8.338733e+01	0	0
1215547	2.196000e+00	-1.319297e+02	7.283440e+01	0	0
1217500	2.196000e+00	-1.402542e+02	4.713905e+01	0	0
1219453	2.196410e+00	-1.314155e+02	2.636286e+01	0	0
1221406	2.197000e+00	-1.615940e+02	1.400738e+01	0	0
1223359	2.196590e+00	-1.642832e+02	1.071107e+01	0	0
1225313	2.196000e+00	-1.496537e+02	8.617197e+00	0	0
1227266	2.196411e+00	-1.749723e+02	1.249873e+00	0	0
1229219	2.197000e+00	-1.762308e+02	-1.804143e+00	0	0
1231172	2.196589e+00	-1.862522e+02	-5.312674e+00	0	0
1233125	2.196411e+00	-1.810540e+02	-1.861470e+01	0	0
1235078	2.196589e+00	-1.625206e+02	-3.439032e+01	0	0
1237031	2.196000e+00	-1.633263e+02	-6.272731e+01	0	0
1238984	2.196000e+00	-1.486501e+02	-1.026873e+02	0	0
1240938	2.196000e+00	-1.465361e+02	-1.282355e+02	0	0
1242891	2.196000e+00	-1.579345e+02	-8.728976e+01	0	0
1244844	2.196000e+00	-2.019495e+02	4.540626e+00	0	0
1246797	2.196000e+00	-2.384756e+02	1.080630e+02	0	0
1248750	2.196000e+00	-2.455685e+02	1.932532e+02	0	0
1250703	2.196000e+00	-2.582426e+02	1.984801e+02	0	0
1252656	2.196000e+00	-2.641934e+02	1.146794e+02	0	0
1254609	2.196000e+00	-2.084190e+02	-4.679696e+00	0	0
1256563	2.196000e+00	-1.914417e+02	-1.061820e+02	0	0
1258516	2.196000e+00	-1.668530e+02	-1.645593e+02	0	0
1260469	2.196000e+00	-1.727839e+02	-1.519401e+02	0	0
1262422	2.196000e+00	-2.209338e+02	-1.051799e+02	0	0
1264375	2.196000e+00	-2.549606e+02	-6.703417e+01	0	0
1266328	2.196412e+00	-2.564704e+02	-3.258339e+01	0	0
1268281	2.196588e+00	-2.684262e+02	-4.376894e+00	0	0
1270234	2.196000e+00	-2.714476e+02	1.241788e+01	0	0
1272188	2.196000e+00	-2.723915e+02	4.682335e+00	0	0
1274141	2.196000e+00	-2.537853e+02	-3.308505e+00	0	0
1276094	2.196000e+00	-2.080222e+02	-3.561047e-01	0	0
1278047	2.196000e+00	-1.797200e+02	-9.570007e+00	0	0
1280000	2.196000e+00	-1.808001e+02	-9.372775e+00	0	0
1281953	2.196000e+00	-1.650601e+02	-5.683941e+00	0	0
1283906	2.196000e+00	-1.713441e+02	3.435099e+00	0	0
1285859	2.196000e+00	-1.688994e+02	1.720371e+01	0	0
1287813	2.196000e+00	-1.541691e+02	2.402095e+01	0	0
1289766	2.196000e+00	-1.677081e+02	3.021944e+01	0	0
1291719	2.196000e+00	-1.211294e+02	3.959648e+01	0	0
1293672	2.196000e+00	-1.140116e+02	4.797882e+01	0	0
1295625	2.196000e+00	-1.042658e+02	4.747336e+01	0	0
1297578	2.196000e+00	-9.196626e+01	1.096729e+01	0	0
1299531	2.196000e+00	-1.290277e+02	-4.030905e+01	0	0
1301484	2.196000e+00	-1.582856e+02	-8.964286e+01	0	0
1303438	2.196000e+00	-1.432700e+02	-1.180196e+02	0	0
1305391	2.196000e+00	-1.389867e+02	-1.052805e+02	0	0
1307344	2.196000e+00	-1.016085e+02	-6.716603e+01	0	0
1309297	2.196000e+00	-9.726940e+01	-2.952135e+01	0	0
1311250	2.196000e+00	-1.114114e+02	-7.196690e+00	0	0
1313203	2.196000e+00	-7.558285e+01	1.274264e+01	0	0
1315156	2.196000e+00	-8.233231e+01	2.047062e+01	0	0
1317109	2.196000e+00	-1.122274e+02	2.114689e+01	0	0
1319063	2.196000e+00	-7.145599e+01	2.060269e+01	0	0
1321016	2.196000e+00	-5.989908e+01	2.205000e+01	0	0
1322969	2.196000e+00	-5.802768e+01	2.602183e+01	0	0
1324922	2.196000e+00	-3.948116e+01	3.250931e+01	0	0
1326875	2.196000e+00	-2.911965e+01	3.934345e+01	0	0
1328828	2.196000e+00	-2.104874e+01	3.873942e+01	0	0
1330781	2.196000e+00	-1.895266e+01	2.494639e+01	0	0
1332734	2.196000e+00	1.025716e+00	1.294520e+01	0	0
1334688	2.196000e+00	1.257772e+01	9.026280e+00	0	0
1336641	2.196000e+00	3.905715e+01	-2.170994e+01	0	0
1338594	2.196000e+00	6.650393e+01	-5.197108e+01	0	0
1340547	2.196000e+00	1.498720e+01	-7.274631e+01	0	0
1342500	2.196000e+00	-9.682231e+00	-1.237157e+02	0	0
1344453	2.196000e+00	1.155916e+01	-1.095743e+02	0	0
1346406	2.196000e+00	-3.392988e+01	-7.293136e+01	0	0
1348359	2.196000e+00	-3.937609e+01	-4.559641e+01	0	0
1350313	2.196000e+00	-4.752926e+01	1.068185e+01	0	0
1352266	2.196000e+00	-6.229392e+01	-2.528417e+01	0	0
1354219	2.196000e+00	-7.667924e+01	-5.184217e+01	0	0
1356172	2.196000e+00	-9.203373e+01	-3.630390e+01	0	0
1358125	2.196000e+00	-1.323808e+02	-3.092860e+01	0	0
1360078	2.196000e+00	-1.665978e+02	-2.867235e+01	0	0
1362031	2.196000e+00	-1.776020e+02	-1.760009e+01	0	0
1363984	2.196000e+00	-1.983695e+02	-3.995798e+01	0	0
1365938	2.196000e+00	-2.185850e+02	-4.433082e+01	0	0
1367891	2.196000e+00	-2.421342e+02	2.526469e+01	0	0
1369844	2.196000e+00	-2.287190e+02	6.102223e+01	0	0
1371797	2.196000e+00	-2.235129e+02	1.087185e+02	0	0
1373750	2.196000e+00	-2.416627e+02	1.574330e+02	0	0
1375703	2.196000e+00	-2.483528e+02	1.572543e+02	0	0
1377656	2.196000e+00	-2.757909e+02	1.042249e+02	0	0
1379609	2.196000e+00	-2.868627e+02	3.454268e+01	0	0
1381563	2.196000e+00	-2.835624e+02	-3.125578e+01	0	0
1383516	2.196000e+00	-2.792674e+02	-7.289401e+01	0	0
1385469	2.196000e+00	-3.081605e+02	-6.356956e+01	0	0
1387422	2.196000e+00	-3.520173e+02	-5.256351e+01	0	0
1389375	2.196000e+00	-3.322480e+02	-4.173732e+01	0	0
1391328	2.196000e+00	-3.101500e+02	-2.056404e+01	0	0
1393281	2.196000e+00	-3.137169e+02	-1.551202e+01	0	0
1395234	2.196000e+00	-2.932497e+02	-2.759454e+01	0	0
1397188	2.196000e+00	-2.756003e+02	-4.194731e+01	0	0
1399141	2.196000e+00	-2.871409e+02	-5.594606e+01	0	0
1401094	2.196000e+00	-2.900720e+02	-6.901971e+01	0	0
1403047	2.196000e+00	-3.020556e+02	-6.430460e+01	0	0
1405000	2.196000e+00	-3.072719e+02	-3.331890e+01	0	0
1406953	2.196000e+00	-3.059816e+02	-9.095530e+00	0	0
1408906	2.196000e+00	-2.743569e+02	3.561468e+01	0	0
1410859	2.196000e+00	-2.754439e+02	1.107880e+02	0	0
1412813	2.196000e+00	-3.175201e+02	1.773035e+02	0	0
1414766	2.196000e+00	-3.331717e+02	2.101411e+02	0	0
1416719	2.196000e+00	-3.322802e+02	1.380940e+02	0	0
1418672	2.196000e+00	-3.528578e+02	7.160671e+01	0	0
1420625	2.196000e+00	-3.746226e+02	-7.303399e+00	0	0
1422578	2.196000e+00	-3.977267e+02	-8.427492e+01	0	0
1424531	2.196000e+00	-4.287120e+02	-1.123477e+02	0	0
1426484	2.196000e+00	-4.256329e+02	-8.441682e+01	0	0
1428438	2.196000e+00	-3.848091e+02	-5.081169e+01	0	0
1430391	2.196000e+00	-3.505348e+02	-2.542061e+01	0	0
1432344	2.196000e+00	-3.032208e+02	5.310277e+00	0	0
1434297	2.196000e+00	-2.935974e+02	2.504936e+01	0	0
1436250	2.196000e+00	-2.743261e+02	3.389207e+01	0	0
1438203	2.196000e+00	-2.515898e+02	2.511617e+01	0	0
1440156	2.196000e+00	-2.610163e+02	-6.163164e+00	0	0
1442109	2.196000e+00	-2.657304e+02	-4.031289e+01	0	0
1444063	2.196000e+00	-3.173804e+02	-7.441486e+01	0	0
1446016	2.196000e+00	-3.224593e+02	-1.140925e+02	0	0
1447969	2.196000e+00	-3.274577e+02	-1.249462e+02	0	0
1449922	2.196000e+00	-3.568504e+02	-9.353182e+01	0	0
1451875	2.196000e+00	-3.579706e+02	-4.439998e+01	0	0
1453828	2.196000e+00	-3.246468e+02	1.148330e+01	0	0
1455781	2.196000e+00	-2.878322e+02	6.635658e+01	0	0
1457734	2.196000e+00	-2.164404e+02	8.470170e+01	0	0
1459688	2.196000e+00	-1.408652e+02	8.639671e+01	0	0
1461641	2.196000e+00	-6.650653e+01	8.271230e+01	0	0
1463594	2.196000e+00	7.213311e+01	7.032992e+01	0	0
1465547	2.196000e+00	2.788072e+02	5.103183e+01	0	0
1467500	2.196000e+00	5.170889e+02	3.136813e+01	0	0
1469453	2.196000e+00	7.590700e+02	1.486795e+01	0	0
1471406	2.196000e+00	1.022409e+03	1.783572e+00	0	0
1473359	2.196000e+00	1.305201e+03	-9.939510e+00	0	0
1475313	2.196000e+00	1.564298e+03	-2.583426e+01	0	0
1477266	2.196000e+00	1.725631e+03	-5.411495e+01	0	0
1479219	2.196000e+00	1.686376e+03	-9.392914e+01	0	0
1481172	2.196000e+00	1.521261e+03	-1.165205e+02	0	0
1483125	2.196000e+00	1.218797e+03	-9.256014e+01	0	0
1485078	2.196000e+00	9.366562e+02	-4.720542e+01	0	0
1487031	2.196000e+00	7.672022e+02	-2.415836e+01	0	0
1488984	2.196000e+00	5.312156e+02	-8.793912e+00	0	0
1490938	2.196000e+00	3.200815e+02	1.530821e+01	0	0
1492891	2.196000e+00	1.074606e+02	3.641581e+01	0	0
1494844	2.196000e+00	-1.019285e+02	4.230099e+01	0	0
1496797	2.196000e+00	-2.577511e+02	2.221554e+01	0	0
1498750	2.195576e+00	-3.369444e+02	-1.595860e+01	0	0
1500703	2.195424e+00	-3.874183e+02	-6.437904e+01	0	0
1502656	2.195576e+00	-4.245829e+02	-1.068136e+02	0	0
1504609	2.195000e+00	-4.298531e+02	-1.289815e+02	0	0
1506563	2.195425e+00	-4.290622e+02	-1.156093e+02	0	0
1508516	2.195575e+00	-3.888032e+02	-6.613726e+01	0	0
1510469	2.195000e+00	-3.210592e+02	-3.455075e+01	0	0
1512422	2.195000e+00	-2.775164e+02	8.239064e+00	0	0
1514375	2.195000e+00	-2.639310e+02	4.169094e+01	0	0
1516328	2.195000e+00	-2.910338e+02	2.900643e+01	0	0
1518281	2.195000e+00	-2.770613e+02	-2.260856e+01	0	0
1520234	2.195000e+00	-2.570541e+02	-8.054802e+01	0	0
1522188	2.195000e+00	-2.675582e+02	-1.352035e+02	0	0
1524141	2.195426e+00	-2.182313e+02	-1.738809e+02	0	0
1526094	2.195574e+00	-1.914231e+02	-1.527745e+02	0	0
1528047	2.195000e+00	-2.393685e+02	-7.981706e+01	0	0
1530000	2.195426e+00	-2.596673e+02	1.132572e+01	0	0
1531953	2.195574e+00	-2.679786e+02	9.460044e+01	0	0
1533906	2.195000e+00	-2.439134e+02	1.465489e+02	0	0
1535859	2.195000e+00	-2.070520e+02	1.331819e+02	0	0
1537813	2.195000e+00	-2.232514e+02	7.495982e+01	0	0
1539766	2.195000e+00	-2.404505e+02	1.395590e+01	0	0
1541719	2.195427e+00	-2.602990e+02	-4.489705e+01	0	0
1543672	2.195573e+00	-2.483822e+02	-9.648156e+01	0	0
1545625	2.195000e+00	-2.626634e+02	-1.155026e+02	0	0
1547578	2.195000e+00	-2.588766e+02	-1.072707e+02	0	0
1549531	2.195000e+00	-2.544812e+02	-7.229363e+01	0	0
1551484	2.195000e+00	-2.514627e+02	-3.291020e+01	0	0
1553438	2.195000e+00	-2.362518e+02	2.438612e-01	0	0
1555391	2.195000e+00	-2.505152e+02	1.882757e+01	0	0
1557344	2.195000e+00	-2.547377e+02	1.673597e+01	0	0
1559297	2.195000e+00	-2.421824e+02	3.352958e+00	0	0
1561250	2.195000e+00	-2.912269e+02	-1.059346e+01	0	0
1563203	2.195000e+00	-3.115475e+02	-1.907228e+01	0	0
1565156	2.195000e+00	-3.026255e+02	-1.023723e+01	0	0
1567109	2.195000e+00	-3.249251e+02	9.364171e+00	0	0
1569063	2.195000e+00	-3.190493e+02	2.720565e+01	0	0
1571016	2.195000e+00	-2.842101e+02	4.135529e+01	0	0
1572969	2.195000e+00	-2.380336e+02	6.490033e+01	0	0
1574922	2.195000e+00	-2.424137e+02	7.962661e+01	0	0
1576875	2.195000e+00	-2.050874e+02	4.793248e+01	0	0
1578828	2.195000e+00	-1.784979e+02	-3.758576e+00	0	0
1580781	2.195000e+00	-1.787685e+02	-5.481745e+01	0	0
1582734	2.195000e+00	-1.556199e+02	-9.685736e+01	0	0
1584688	2.195000e+00	-1.343897e+02	-8.548896e+01	0	0
1586641	2.195000e+00	-1.815452e+02	-5.252760e+01	0	0
1588594	2.195000e+00	-2.051908e+02	-2.701855e+01	0	0
1590547	2.195000e+00	-1.971100e+02	-1.983975e+00	0	0
1592500	2.195000e+00	-1.976295e+02	2.033144e+01	0	0
1594453	2.195000e+00	-1.764579e+02	2.728793e+01	0	0
1596406	2.195000e+00	-1.637007e+02	2.420861e+01	0	0
1598359	2.195000e+00	-1.689409e+02	1.309815e+01	0	0
1600313	2.195000e+00	-1.775140e+02	-1.593645e+01	0	0
1602266	2.195000e+00	-1.610914e+02	-6.013061e+01	0	0
1604219	2.195000e+00	-1.784486e+02	-1.014247e+02	0	0
1606172	2.195000e+00	-1.882984e+02	-1.060884e+02	0	0
1608125	2.195000e+00	-1.863966e+02	-5.709374e+01	0	0
1610078	2.195000e+00	-2.306735e+02	1.394237e+00	0	0
1612031	2.195000e+00	-2.137109e+02	5.133154e+01	0	0
1613984	2.195000e+00	-1.936736e+02	8.027619e+01	0	0
1615938	2.195000e+00	-1.870573e+02	7.187880e+01	0	0
1617891	2.195000e+00	-1.454806e+02	5.282457e+01	0	0
1619844	2.195000e+00	-1.403291e+02	3.696864e+01	0	0
1621797	2.195000e+00	-1.092130e+02	2.532302e+01	0	0
1623750	2.195000e+00	-1.302663e+02	7.672062e+00	0	0
1625703	2.195000e+00	-1.531897e+02	5.612092e-01	0	0
1627656	2.195000e+00	-1.807233e+02	1.009592e+01	0	0
1629609	2.195000e+00	-2.103258e+02	4.911990e+00	0	0
1631563	2.195000e+00	-1.798283e+02	8.347163e+00	0	0
1633516	2.195000e+00	-1.574761e+02	6.484434e+00	0	0
1635469	2.195000e+00	-1.383103e+02	-1.091191e+01	0	0
1637422	2.195000e+00	-1.092655e+02	-3.937736e+01	0	0
1639375	2.195000e+00	-6.436896e+01	-8.259132e+01	0	0
1641328	2.195000e+00	-6.788522e+01	-1.189545e+02	0	0
1643281	2.195000e+00	-1.082969e+02	-1.349520e+02	0	0
1645234	2.195000e+00	-7.638009e+01	-1.255000e+02	0	0
1647188	2.195000e+00	-6.673265e+01	-9.038486e+01	0	0
1649141	2.195000e+00	-7.713487e+01	-3.103262e+01	0	0
1651094	2.195000e+00	-8.516358e+01	2.661125e+01	0	0
1653047	2.195000e+00	-1.066511e+02	8.312986e+01	0	0
1655000	2.195000e+00	-9.959875e+01	1.452127e+02	0	0
1656953	2.195000e+00	-1.044859e+02	1.576705e+02	0	0
1658906	2.195000e+00	-1.022493e+02	7.930256e+01	0	0
1660859	2.195000e+00	-8.846891e+01	-3.790102e+01	0	0
1662813	2.195000e+00	-8.637338e+01	-1.308749e+02	0	0
1664766	2.195000e+00	-6.357875e+01	-1.694809e+02	0	0
1666719	2.195000e+00	-4.687536e+01	-1.280526e+02	0	0
1668672	2.195000e+00	-4.960162e+01	-6.106567e+01	0	0
1670625	2.195000e+00	-9.714477e+00	9.957015e+00	0	0
1672578	2.195000e+00	-1.503828e+01	7.059425e+01	0	0
1674531	2.195000e+00	-1.368382e+01	7.608538e+01	0	0
1676484	2.195000e+00	1.420597e+01	3.868689e+01	0	0
1678438	2.195000e+00	1.524659e+01	-1.833889e+00	0	0
1680391	2.195000e+00	9.426868e-01	-4.031325e+01	0	0
1682344	2.195000e+00	3.210511e+01	-6.226737e+01	0	0
1684297	2.195000e+00	4.888971e+01	-4.691723e+01	0	0
1686250	2.195000e+00	2.529551e+01	-1.207118e+01	0	0
1688203	2.195000e+00	2.253922e+01	2.546910e+01	0	0
1690156	2.195000e+00	1.724122e+01	5.697695e+01	0	0
1692109	2.195000e+00	4.134066e+01	7.691718e+01	0	0
1694063	2.195000e+00	4.612254e+01	6.189839e+01	0	0
1696016	2.195000e+00	9.376068e+01	4.846131e+00	0	0
1697969	2.195000e+00	1.229100e+02	-5.038095e+01	0	0
1699922	2.195000e+00	1.183965e+02	-9.337577e+01	0	0
1701875	2.195000e+00	1.063808e+02	-1.362422e+02	0	0
1703828	2.195000e+00	8.296197e+01	-1.544124e+02	0	0
1705781	2.195000e+00	1.208860e+02	-1.443869e+02	0	0
1707734	2.195000e+00	1.539460e+02	-1.074183e+02	0	0
1709688	2.195000e+00	1.828989e+02	-6.276832e+01	0	0
1711641	2.195000e+00	2.439211e+02	-1.556652e+01	0	0
1713594	2.195000e+00	2.782668e+02	3.924407e+01	0	0
1715547	2.195000e+00	2.794679e+02	7.069193e+01	0	0
1717500	2.195000e+00	2.810437e+02	7.817650e+01	0	0
1719453	2.195000e+00	2.813617e+02	7.475482e+01	0	0
1721406	2.195000e+00	2.431423e+02	5.702415e+01	0	0
1723359	2.195000e+00	2.166631e+02	3.974662e+01	0	0
1725313	2.195000e+00	2.105128e+02	1.980523e+01	0	0
1727266	2.195000e+00	2.377283e+02	-1.034502e+01	0	0
1729219	2.195000e+00	2.647343e+02	-2.959616e+01	0	0
1731172	2.195000e+00	2.602955e+02	-3.799657e+01	0	0
1733125	2.195000e+00	2.984083e+02	-3.353023e+01	0	0
1735078	2.195000e+00	2.857805e+02	-2.240926e+01	0	0
1737031	2.195000e+00	3.219129e+02	-5.811175e+00	0	0
1738984	2.195000e+00	3.334901e+02	1.458287e+00	0	0
1740938	2.195000e+00	3.213515e+02	6.974594e+00	0	0
1742891	2.195000e+00	3.106453e+02	2.386989e+01	0	0
1744844	2.195000e+00	2.702243e+02	2.981216e+01	0	0
1746797	2.195000e+00	2.805511e+02	2.976931e+01	0	0
1748750	2.195000e+00	2.429702e+02	2.619089e+01	0	0
1750703	2.195000e+00	1.966163e+02	1.883022e+01	0	0
1752656	2.195000e+00	2.143864e+02	9.467668e+00	0	0
1754609	2.195000e+00	1.719836e+02	-7.418204e+00	0	0
1756563	2.195000e+00	1.552377e+02	-4.618723e+01	0	0
1758516	2.195000e+00	1.611809e+02	-9.121697e+01	0	0
1760469	2.195000e+00	1.032652e+02	-1.392600e+02	0	0
1762422	2.195000e+00	7.757057e+01	-1.721193e+02	0	0
1764375	2.195000e+00	3.108908e+01	-1.425749e+02	0	0
1766328	2.195000e+00	-3.197016e+01	-6.618962e+01	0	0
1768281	2.195000e+00	-4.630097e+01	1.779424e+01	0	0
1770234	2.195000e+00	-5.058850e+01	9.373621e+01	0	0
1772188	2.195000e+00	-5.698451e+01	1.450974e+02	0	0
1774141	2.195000e+00	-8.020120e+01	1.376469e+02	0	0
1776094	2.194562e+00	-1.017326e+02	9.591199e+01	0	0
1778047	2.194439e+00	-1.069333e+02	4.677352e+01	0	0
1780000	2.195000e+00	-1.371767e+02	1.919887e+01	0	0
1781953	2.195000e+00	-1.244084e+02	9.908430e+00	0	0
1783906	2.195000e+00	-1.732500e+02	-8.563600e+00	0	0
1785859	2.195000e+00	-1.954574e+02	-2.716679e+01	0	0
1787813	2.195000e+00	-2.001817e+02	-4.726363e+01	0	0
1789766	2.195000e+00	-2.141014e+02	-6.720512e+01	0	0
1791719	2.195000e+00	-2.219533e+02	-8.638851e+01	0	0
1793672	2.194561e+00	-2.409378e+02	-9.643306e+01	0	0
1795625	2.194000e+00	-2.362729e+02	-9.102747e+01	0	0
1797578	2.194000e+00	-2.225313e+02	-9.636716e+01	0	0
1799531	2.194000e+00	-2.255331e+02	-1.019577e+02	0	0
1801484	2.194000e+00	-2.481947e+02	-8.397647e+01	0	0
1803438	2.194440e+00	-2.756211e+02	-4.977453e+01	0	0
1805391	2.195000e+00	-3.025083e+02	-4.050664e+01	0	0
1807344	2.194560e+00	-2.780082e+02	-1.578218e+01	0	0
1809297	2.194440e+00	-2.767637e+02	4.597427e+01	0	0
1811250	2.194560e+00	-2.991736e+02	6.400672e+01	0	0
1813203	2.194440e+00	-2.929485e+02	1.077993e+02	0	0
1815156	2.195000e+00	-2.880134e+02	1.155949e+02	0	0
1817109	2.195000e+00	-2.827567e+02	5.454105e+01	0	0
1819063	2.194559e+00	-2.553034e+02	3.036987e+00	0	0
1821016	2.194000e+00	-2.581680e+02	-5.853118e+01	0	0
1822969	2.194000e+00	-2.763739e+02	-1.113277e+02	0	0
1824922	2.194000e+00	-3.050877e+02	-1.311397e+02	0	0
1826875	2.194441e+00	-3.315565e+02	-1.090608e+02	0	0
1828828	2.194559e+00	-3.741635e+02	-5.495622e+01	0	0
1830781	2.194000e+00	-4.079053e+02	-3.258092e+00	0	0
1832734	2.194000e+00	-4.004283e+02	4.064941e+01	0	0
1834688	2.194000e+00	-3.912195e+02	7.798496e+01	0	0
1836641	2.194000e+00	-4.003344e+02	8.330224e+01	0	0
1838594	2.194000e+00	-3.602500e+02	5.311849e+01	0	0
1840547	2.194000e+00	-3.221625e+02	7.582281e+00	0	0
1842500	2.194000e+00	-3.189791e+02	-3.687604e+01	0	0
1844453	2.194000e+00	-2.955060e+02	-6.968804e+01	0	0
1846406	2.194000e+00	-3.194906e+02	-6.467969e+01	0	0
1848359	2.194000e+00	-3.070037e+02	-2.697691e+01	0	0
1850313	2.194000e+00	-2.712585e+02	1.654552e+01	0	0
1852266	2.194000e+00	-2.646130e+02	4.923115e+01	0	0
1854219	2.194000e+00	-2.512079e+02	6.083446e+01	0	0
1856172	2.194000e+00	-2.577063e+02	2.897374e+01	0	0
1858125	2.194000e+00	-2.587944e+02	-1.782870e+01	0	0
1860078	2.194000e+00	-2.819641e+02	-6.753203e+01	0	0
1862031	2.194000e+00	-2.804150e+02	-1.131895e+02	0	0
1863984	2.194000e+00	-2.896014e+02	-1.268134e+02	0	0
1865938	2.194000e+00	-3.215219e+02	-1.055583e+02	0	0
1867891	2.194000e+00	-3.217600e+02	-7.835218e+01	0	0
1869844	2.194000e+00	-3.018453e+02	-5.706705e+01	0	0
1871797	2.194000e+00	-2.630334e+02	-2.835804e+01	0	0
1873750	2.194000e+00	-2.936565e+02	-5.901110e+00	0	0
1875703	2.194000e+00	-2.822682e+02	3.747723e+00	0	0
1877656	2.194000e+00	-2.425300e+02	3.450228e+00	0	0
1879609	2.194000e+00	-2.908284e+02	-4.727224e+00	0	0
1881563	2.194000e+00	-3.187386e+02	-1.076627e+01	0	0
1883516	2.194000e+00	-3.112753e+02	-1.897340e+01	0	0
1885469	2.194000e+00	-3.349052e+02	-3.388027e+01	0	0
1887422	2.194000e+00	-3.659918e+02	-4.262253e+01	0	0
1889375	2.194000e+00	-3.561125e+02	-4.052539e+01	0	0
1891328	2.194000e+00	-3.142781e+02	-8.644033e+00	0	0
1893281	2.194000e+00	-2.740405e+02	3.418595e+01	0	0
1895234	2.194000e+00	-2.605717e+02	8.366172e+01	0	0
1897188	2.194000e+00	-2.473388e+02	1.031884e+02	0	0
1899141	2.194000e+00	-2.167226e+02	2.224995e+01	0	0
1901094	2.194000e+00	-2.097117e+02	-1.147231e+02	0	0
1903047	2.194000e+00	-2.360817e+02	-1.913532e+02	0	0
1905000	2.194000e+00	-2.373488e+02	-1.503090e+02	0	0
1906953	2.194000e+00	-2.716728e+02	-5.743244e+01	0	0
1908906	2.194000e+00	-3.118351e+02	2.584295e+01	0	0
1910859	2.194000e+00	-3.074446e+02	1.097332e+02	0	0
1912813	2.194000e+00	-3.452445e+02	1.327763e+02	0	0
1914766	2.194000e+00	-3.354513e+02	8.542211e+01	0	0
1916719	2.194000e+00	-3.369939e+02	6.026412e+01	0	0
1918672	2.194000e+00	-3.578172e+02	1.413790e+01	0	0
1920625	2.194000e+00	-3.684566e+02	-3.680684e+01	0	0
1922578	2.194000e+00	-3.929551e+02	-5.205774e+01	0	0
1924531	2.194000e+00	-4.208284e+02	-2.972402e+01	0	0
1926484	2.194000e+00	-4.051603e+02	6.711668e+00	0	0
1928438	2.194000e+00	-4.128650e+02	3.247510e+01	0	0
1930391	2.194000e+00	-4.481799e+02	3.866709e+01	0	0
1932344	2.194000e+00	-3.829539e+02	2.850073e+01	0	0
1934297	2.194000e+00	-3.350347e+02	5.586962e+00	0	0
1936250	2.194000e+00	-3.068356e+02	-3.648920e+01	0	0
1938203	2.194000e+00	-3.105987e+02	-8.336580e+01	0	0
1940156	2.194000e+00	-2.703406e+02	-1.274611e+02	0	0
1942109	2.194000e+00	-2.224870e+02	-1.530016e+02	0	0
1944063	2.194000e+00	-2.049979e+02	-1.324830e+02	0	0
1946016	2.194000e+00	-1.661712e+02	-6.563733e+01	0	0
1947969	2.194000e+00	-1.713483e+02	2.278360e+01	0	0
1949922	2.194000e+00	-1.825561e+02	1.216790e+02	0	0
1951875	2.194000e+00	-1.921424e+02	1.894798e+02	0	0
1953828	2.194000e+00	-2.299578e+02	1.689057e+02	0	0
1955781	2.194000e+00	-2.475492e+02	9.346613e+01	0	0
1957734	2.194000e+00	-2.122168e+02	1.789880e+01	0	0
1959688	2.194000e+00	-2.049187e+02	-5.317927e+01	0	0
1961641	2.194000e+00	-2.591510e+02	-9.868164e+01	0	0
1963594	2.194000e+00	-2.250825e+02	-9.323142e+01	0	0
1965547	2.194000e+00	-1.970119e+02	-6.005698e+01	0	0
1967500	2.194000e+00	-2.554279e+02	-1.131339e+01	0	0
1969453	2.194000e+00	-2.322663e+02	3.115673e+01	0	0
1971406	2.194000e+00	-2.173506e+02	3.384297e+01	0	0
1973359	2.194000e+00	-2.144303e+02	2.117220e+00	0	0
1975313	2.194000e+00	-1.818072e+02	-4.705554e+01	0	0
1977266	2.194000e+00	-1.657939e+02	-8.251777e+01	0	0
1979219	2.194000e+00	-1.515148e+02	-5.617415e+01	0	0
1981172	2.194000e+00	-1.389508e+02	-4.951340e+00	0	0
1983125	2.194000e+00	-1.414548e+02	5.184331e+01	0	0
1985078	2.194000e+00	-1.234913e+02	1.026388e+02	0	0
1987031	2.194000e+00	-1.271833e+02	1.142675e+02	0	0
1988984	2.194000e+00	-1.339422e+02	8.584590e+01	0	0
1990938	2.194000e+00	-1.386893e+02	3.694942e+01	0	0
1992891	2.194000e+00	-1.728898e+02	-5.597431e+00	0	0
1994844	2.194000e+00	-1.631617e+02	-5.204019e+01	0	0
1996797	2.194000e+00	-1.566054e+02	-1.066843e+02	0	0
1998750	2.193550e+00	-1.217839e+02	-1.513930e+02	0	0
2000703	2.193000e+00	-7.270167e+01	-1.622001e+02	0	0
2002656	2.193450e+00	-6.393880e+01	-1.140012e+02	0	0
2004609	2.194000e+00	-4.372688e+01	-3.759248e+01	0	0
2006563	2.193550e+00	-3.694658e+01	3.266894e+01	0	0
2008516	2.193450e+00	-5.930711e+01	7.726178e+01	0	0
2010469	2.194000e+00	-5.922544e+01	8.608830e+01	0	0
2012422	2.193550e+00	-6.505011e+01	8.215416e+01	0	0
2014375	2.193000e+00	-7.826093e+01	5.102925e+01	0	0
2016328	2.193450e+00	-6.609935e+01	7.497052e+00	0	0
2018281	2.193549e+00	-8.659427e+01	-3.226213e+01	0	0
2020234	2.193000e+00	-1.204781e+02	-4.861425e+01	0	0
2022188	2.193000e+00	-1.616530e+02	-4.103001e+01	0	0
2024141	2.193000e+00	-2.019408e+02	-4.022122e+01	0	0
2026094	2.193000e+00	-2.245012e+02	-3.831059e+01	0	0
2028047	2.193000e+00	-2.522970e+02	-4.522415e+01	0	0
2030000	2.193000e+00	-2.798356e+02	-5.169430e+01	0	0
2031953	2.193000e+00	-2.725021e+02	-5.373183e+01	0	0
2033906	2.193000e+00	-2.715035e+02	-6.105595e+01	0	0
2035859	2.193000e+00	-2.773488e+02	-7.125487e+01	0	0
2037813	2.193000e+00	-3.053671e+02	-7.442951e+01	0	0
2039766	2.193000e+00	-3.371614e+02	-6.784381e+01	0	0
2041719	2.193000e+00	-3.589060e+02	-5.078297e+01	0	0
2043672	2.193000e+00	-4.289739e+02	-4.161185e+01	0	0
2045625	2.193000e+00	-4.598363e+02	-2.310614e+01	0	0
2047578	2.193000e+00	-4.802723e+02	1.716627e+01	0	0
2049531	2.193000e+00	-4.703089e+02	7.373294e+01	0	0
2051484	2.193000e+00	-4.841133e+02	1.255456e+02	0	0
2053438	2.193000e+00	-4.733898e+02	1.471480e+02	0	0
2055391	2.193000e+00	-3.868841e+02	1.249156e+02	0	0
2057344	2.193000e+00	-3.321983e+02	4.625447e+01	0	0
2059297	2.193000e+00	-2.711416e+02	-4.804572e+01	0	0
2061250	2.193000e+00	-2.224922e+02	-1.233269e+02	0	0
2063203	2.193000e+00	-2.357886e+02	-1.708149e+02	0	0
2065156	2.193000e+00	-2.807809e+02	-1.707336e+02	0	0
2067109	2.193000e+00	-2.932192e+02	-1.288306e+02	0	0
2069063	2.193000e+00	-3.418685e+02	-7.374857e+01	0	0
2071016	2.193000e+00	-3.593553e+02	-2.716580e+01	0	0
2072969	2.193000e+00	-3.520431e+02	1.485276e+01	0	0
2074922	2.193000e+00	-3.353493e+02	2.571568e+01	0	0
2076875	2.193000e+00	-3.312586e+02	-1.502472e+01	0	0
2078828	2.193000e+00	-3.475633e+02	-3.256701e+01	0	0
2080781	2.193000e+00	-3.139385e+02	-7.309421e+01	0	0
2082734	2.193000e+00	-3.345430e+02	-8.981819e+01	0	0
2084688	2.193000e+00	-3.400472e+02	-4.465223e+01	0	0
2086641	2.193000e+00	-3.508068e+02	-3.099209e+01	0	0
2088594	2.193000e+00	-4.116079e+02	-7.317277e+00	0	0
2090547	2.193000e+00	-4.538935e+02	1.614927e+01	0	0
2092500	2.193000e+00	-4.667463e+02	2.274152e+01	0	0
2094453	2.193000e+00	-4.298338e+02	-1.129736e+01	0	0
2096406	2.193000e+00	-4.073887e+02	-5.458305e+01	0	0
2098359	2.193000e+00	-4.095187e+02	-9.511291e+01	0	0
2100313	2.193000e+00	-3.685736e+02	-1.296157e+02	0	0
2102266	2.193000e+00	-3.397716e+02	-1.210251e+02	0	0
2104219	2.193000e+00	-3.479961e+02	-5.963089e+01	0	0
2106172	2.193000e+00	-3.461356e+02	3.935781e+01	0	0
2108125	2.193000e+00	-3.513656e+02	1.046684e+02	0	0
2110078	2.193000e+00	-3.384465e+02	1.639271e+02	0	0
2112031	2.193000e+00	-3.364970e+02	1.683848e+02	0	0
2113984	2.193000e+00	-3.811539e+02	7.244301e+01	0	0
2115938	2.193000e+00	-4.233499e+02	-3.905972e+01	0	0
2117891	2.193000e+00	-4.502072e+02	-1.557458e+02	0	0
2119844	2.193000e+00	-4.750990e+02	-1.642082e+02	0	0
2121797	2.193000e+00	-5.018536e+02	-3.519882e+02	0	0
2123750	2.193000e+00	-4.661408e+02	-6.620965e+02	0	0
2125703	2.193000e+00	-3.940216e+02	-4.462830e+02	0	0
2127656	2.193000e+00	-3.031592e+02	-1.092282e+02	0	0
2129609	2.193000e+00	-2.015170e+02	3.670317e+02	0	0
2131563	2.193000e+00	-9.702084e+01	5.823154e+02	0	0
2133516	2.193000e+00	5.476501e+01	3.104196e+02	0	0
2135469	2.193000e+00	2.687946e+02	3.007446e+02	0	0
2137422	2.193000e+00	4.642143e+02	8.237163e+01	0	0
2139375	2.193000e+00	7.010691e+02	-5.219858e+01	0	0
2141328	2.193000e+00	9.914240e+02	-5.312663e+01	0	0
2143281	2.193000e+00	1.231123e+03	-1.115860e+02	0	0
2145234	2.193000e+00	1.428902e+03	-1.281219e+02	0	0
2147188	2.193000e+00	1.560757e+03	-6.534312e+01	0	0
2149141	2.193000e+00	1.553162e+03	-4.889616e+00	0	0
2151094	2.193000e+00	1.408784e+03	2.987942e+01	0	0
2153047	2.193000e+00	1.093165e+03	6.977789e+01	0	0
2155000	2.193000e+00	8.491316e+02	9.103690e+01	0	0
2156953	2.193000e+00	6.985936e+02	8.141944e+01	0	0
2158906	2.193000e+00	4.865295e+02	2.400435e+01	0	0
2160859	2.193000e+00	3.206085e+02	-4.525889e+01	0	0
2162813	2.193000e+00	8.439304e+01	-9.752183e+01	0	0
2164766	2.193000e+00	-1.007612e+02	-1.228930e+02	0	0
2166719	2.193000e+00	-2.512767e+02	-1.110674e+02	0	0
2168672	2.193000e+00	-3.850592e+02	-8.335785e+01	0	0
2170625	2.193000e+00	-4.601924e+02	-5.346490e+01	0	0
2172578	2.193000e+00	-4.886360e+02	-2.805517e+01	0	0
2174531	2.193000e+00	-5.173832e+02	-9.225652e+00	0	0
2176484	2.193000e+00	-4.900455e+02	3.192801e+00	0	0
2178438	2.193000e+00	-4.582309e+02	1.427796e+01	0	0
2180391	2.193000e+00	-4.228177e+02	1.884776e+01	0	0
2182344	2.193000e+00	-3.796921e+02	2.597961e+01	0	0
2184297	2.193000e+00	-3.450959e+02	2.801354e+01	0	0
2186250	2.193000e+00	-2.771499e+02	3.059035e+01	0	0
2188203	2.193000e+00	-3.405631e+02	4.454625e+01	0	0
2190156	2.193000e+00	-3.662438e+02	5.404289e+01	0	0
2192109	2.193000e+00	-2.894688e+02	5.958764e+01	0	0
2194063	2.193000e+00	-3.177989e+02	6.011001e+01	0	0
2196016	2.193000e+00	-3.323389e+02	3.910984e+01	0	0
2197969	2.193000e+00	-3.093948e+02	-1.242849e+01	0	0
2199922	2.193000e+00	-3.350530e+02	-6.262279e+01	0	0
2201875	2.193000e+00	-3.373319e+02	-1.143615e+02	0	0
2203828	2.193000e+00	-3.229272e+02	-1.733433e+02	0	0
2205781	2.193000e+00	-2.962231e+02	-2.176597e+02	0	0
2207734	2.193000e+00	-3.626774e+02	-2.272128e+02	0	0
2209688	2.192539e+00	-3.619728e+02	-1.712492e+02	0	0
2211641	2.192461e+00	-3.600745e+02	-8.012783e+01	0	0
2213594	2.193000e+00	-3.627252e+02	2.139873e+01	0	0
2215547	2.193000e+00	-3.276654e+02	1.075274e+02	0	0
2217500	2.193000e+00	-3.839930e+02	1.419234e+02	0	0
2219453	2.193000e+00	-3.790555e+02	1.387401e+02	0	0
2221406	2.193000e+00	-3.640413e+02	1.134201e+02	0	0
2223359	2.193000e+00	-4.210987e+02	7.625092e+01	0	0
2225313	2.192539e+00	-4.649192e+02	4.229281e+01	0	0
2227266	2.192000e+00	-4.679379e+02	9.388630e+00	0	0
2229219	2.192000e+00	-4.429242e+02	-3.063515e+01	0	0
2231172	2.192000e+00	-4.307688e+02	-5.845589e+01	0	0
2233125	2.192000e+00	-4.021343e+02	-7.178959e+01	0	0
2235078	2.192000e+00	-3.727911e+02	-6.967702e+01	0	0
2237031	2.192000e+00	-3.515064e+02	-6.239757e+01	0	0
2238984	2.192000e+00	-3.242262e+02	-5.520973e+01	0	0
2240938	2.192000e+00	-2.915753e+02	-4.905258e+01	0	0
2242891	2.192000e+00	-2.399786e+02	-3.930857e+01	0	0
2244844	2.192000e+00	-2.159710e+02	-2.440552e+01	0	0
2246797	2.192000e+00	-2.402806e+02	-1.613758e+00	0	0
2248750	2.192000e+00	-2.787587e+02	2.790847e+01	0	0
2250703	2.192000e+00	-2.575820e+02	5.203495e+01	0	0
2252656	2.192000e+00	-2.909092e+02	6.876129e+01	0	0
2254609	2.192000e+00	-2.904081e+02	7.063361e+01	0	0
2256563	2.192000e+00	-2.600986e+02	3.989876e+01	0	0
2258516	2.192000e+00	-3.014484e+02	-3.200451e+01	0	0
2260469	2.192000e+00	-2.837163e+02	-1.135017e+02	0	0
2262422	2.192000e+00	-2.803421e+02	-1.877268e+02	0	0
2264375	2.192000e+00	-3.171014e+02	-2.139753e+02	0	0
2266328	2.192000e+00	-3.349420e+02	-1.069284e+02	0	0
2268281	2.192000e+00	-3.049585e+02	7.983547e+01	0	0
2270234	2.192000e+00	-2.861017e+02	2.243513e+02	0	0
2272188	2.192000e+00	-3.214640e+02	2.573949e+02	0	0
2274141	2.192000e+00	-3.127818e+02	1.893391e+02	0	0
2276094	2.192000e+00	-2.743471e+02	1.011581e+02	0	0
2278047	2.192000e+00	-2.578101e+02	8.442781e+00	0	0
2280000	2.192000e+00	-2.787677e+02	-8.318949e+01	0	0
2281953	2.192000e+00	-2.670948e+02	-1.459178e+02	0	0
2283906	2.192000e+00	-2.568330e+02	-1.582204e+02	0	0
2285859	2.192000e+00	-2.939465e+02	-1.163542e+02	0	0
2287813	2.192000e+00	-2.933793e+02	-5.453596e+01	0	0
2289766	2.192000e+00	-2.650690e+02	2.579055e+01	0	0
2291719	2.192000e+00	-2.650440e+02	1.050697e+02	0	0
2293672	2.192000e+00	-2.552957e+02	1.306191e+02	0	0
2295625	2.192000e+00	-2.414231e+02	1.041779e+02	0	0
2297578	2.192000e+00	-2.749762e+02	3.897451e+01	0	0
2299531	2.192000e+00	-2.604590e+02	-3.254598e+01	0	0
2301484	2.192000e+00	-2.241979e+02	-9.263269e+01	0	0
2303438	2.192000e+00	-2.435667e+02	-1.351098e+02	0	0
2305391	2.192000e+00	-2.477469e+02	-1.388301e+02	0	0
2307344	2.192000e+00	-2.372641e+02	-9.747567e+01	0	0
2309297	2.192000e+00	-2.598975e+02	-2.183702e+01	0	0
2311250	2.192000e+00	-2.783842e+02	6.289535e+01	0	0
2313203	2.192000e+00	-2.483062e+02	1.321443e+02	0	0
2315156	2.192000e+00	-2.419119e+02	1.558154e+02	0	0
2317109	2.192000e+00	-2.647376e+02	1.313709e+02	0	0
2319063	2.192000e+00	-2.127490e+02	6.979274e+01	0	0
2321016	2.192000e+00	-2.159606e+02	-3.678108e-01	0	0
2322969	2.192000e+00	-2.497944e+02	-6.285106e+01	0	0
2324922	2.192000e+00	-2.024818e+02	-9.713916e+01	0	0
2326875	2.192000e+00	-1.804198e+02	-8.787845e+01	0	0
2328828	2.192000e+00	-1.735591e+02	-4.948121e+01	0	0
2330781	2.192000e+00	-1.386015e+02	-1.370818e+01	0	0
2332734	2.192000e+00	-1.554744e+02	1.104222e+01	0	0
2334688	2.192000e+00	-1.586811e+02	3.575678e+01	0	0
2336641	2.192000e+00	-1.128971e+02	3.429420e+01	0	0
2338594	2.192000e+00	-1.502546e+02	1.039958e+01	0	0
2340547	2.192000e+00	-1.506792e+02	-1.677708e+01	0	0
2342500	2.192000e+00	-1.379331e+02	-3.492878e+01	0	0
2344453	2.192000e+00	-1.325706e+02	-4.801671e+01	0	0
2346406	2.192000e+00	-1.190531e+02	-3.824702e+01	0	0
2348359	2.192000e+00	-1.052145e+02	-1.208777e+01	0	0
2350313	2.192000e+00	-9.954562e+01	-1.085392e+01	0	0
2352266	2.192000e+00	-1.324901e+02	4.941486e+01	0	0
2354219	2.192000e+00	-1.351189e+02	6.639038e+01	0	0
2356172	2.192000e+00	-1.597094e+02	1.199890e+01	0	0
2358125	2.192000e+00	-9.829430e+01	2.468466e+01	0	0
2360078	2.192000e+00	-3.527372e+01	3.445840e+01	0	0
2362031	2.192000e+00	-5.050484e+01	4.483526e+01	0	0
2363984	2.192000e+00	-6.147994e+01	5.098948e+01	0	0
2365938	2.192000e+00	-5.686377e+01	-2.648461e+01	0	0
2367891	2.192000e+00	-1.804187e+01	-8.014520e+01	0	0
2369844	2.192000e+00	-1.669777e+01	1.578004e+01	0	0
2371797	2.192000e+00	-2.403566e+01	2.502181e+01	0	0
2373750	2.192000e+00	-9.980581e+00	9.947827e+01	0	0
2375703	2.192000e+00	-3.183469e+01	9.177289e+01	0	0
2377656	2.192000e+00	-3.820653e+00	-2.821907e+01	0	0
2379609	2.192000e+00	2.136393e+01	-1.120192e+02	0	0
2381563	2.192000e+00	1.006570e+01	-2.369767e+02	0	0
2383516	2.192000e+00	3.994386e+00	-1.302751e+02	0	0
2385469	2.192000e+00	-2.453743e+00	-3.428799e+01	0	0
2387422	2.192000e+00	2.680334e+01	5.554178e+01	0	0
2389375	2.192000e+00	4.669747e+01	5.389299e+01	0	0
2391328	2.192000e+00	3.089208e+01	-2.043751e+01	0	0
2393281	2.192000e+00	4.037948e+01	1.140630e+01	0	0
2395234	2.192000e+00	5.791506e+01	1.984025e+01	0	0
2397188	2.192000e+00	6.853767e+01	2.659942e+01	0	0
2399141	2.192000e+00	8.641450e+01	2.423423e+01	0	0
2401094	2.192000e+00	1.141146e+02	1.230376e+01	0	0
2403047	2.192000e+00	1.104934e+02	-5.899198e+00	0	0
2405000	2.192000e+00	8.963189e+01	-1.637365e+01	0	0
2406953	2.192000e+00	1.169956e+02	-2.561603e+01	0	0
2408906	2.191529e+00	9.450496e+01	-3.757071e+01	0	0
2410859	2.191000e+00	9.397772e+01	-4.191461e+01	0	0
2412813	2.191000e+00	8.620568e+01	-3.913121e+01	0	0
2414766	2.191000e+00	5.735357e+01	-2.949600e+01	0	0
2416719	2.191472e+00	5.293707e+01	-1.558645e+01	0	0
2418672	2.191528e+00	5.722382e+01	-5.773428e+00	0	0
2420625	2.191472e+00	4.630580e+00	-1.175837e+00	0	0
2422578	2.191528e+00	-6.684692e+01	8.530301e+00	0	0
2424531	2.191000e+00	-8.795038e+01	1.896655e+01	0	0
2426484	2.191472e+00	-9.750573e+01	2.336714e+01	0	0
2428438	2.192000e+00	-9.585152e+01	2.270936e+01	0	0
2430391	2.191527e+00	-9.899710e+01	1.823218e+01	0	0
2432344	2.191000e+00	-1.330199e+02	8.798260e+00	0	0
2434297	2.191000e+00	-1.894524e+02	1.177948e+00	0	0
2436250	2.191473e+00	-2.408141e+02	9.074184e-02	0	0
2438203	2.191527e+00	-2.394750e+02	-4.662735e+00	0	0
2440156	2.191000e+00	-2.280193e+02	-1.160039e+01	0	0
2442109	2.191000e+00	-2.710847e+02	-1.389361e+01	0	0
2444063	2.191000e+00	-2.942360e+02	-1.274258e+01	0	0
2446016	2.191474e+00	-2.988361e+02	-9.968342e+00	0	0
2447969	2.191526e+00	-3.204138e+02	-6.864576e+00	0	0
2449922	2.191000e+00	-3.369526e+02	-3.288122e+00	0	0
2451875	2.191000e+00	-3.146495e+02	5.708921e-01	0	0
2453828	2.191000e+00	-3.645649e+02	5.093143e+00	0	0
2455781	2.191000e+00	-4.073907e+02	8.164678e+00	0	0
2457734	2.191000e+00	-4.339107e+02	8.844394e+00	0	0
2459688	2.191000e+00	-4.774688e+02	9.465975e+00	0	0
2461641	2.191000e+00	-4.650567e+02	9.515877e+00	0	0
2463594	2.191000e+00	-4.956063e+02	1.188874e+01	0	0
2465547	2.191000e+00	-4.742228e+02	1.661650e+01	0	0
2467500	2.191000e+00	-4.487077e+02	1.997489e+01	0	0
2469453	2.191000e+00	-4.439733e+02	2.231424e+01	0	0
2471406	2.191000e+00	-4.349908e+02	2.343811e+01	0	0
2473359	2.191000e+00	-4.555642e+02	2.347387e+01	0	0
2475313	2.191000e+00	-4.470294e+02	2.261334e+01	0	0
2477266	2.191000e+00	-4.230497e+02	2.030851e+01	0	0
2479219	2.191000e+00	-3.950338e+02	1.397729e+01	0	0
2481172	2.191000e+00	-4.266312e+02	7.985127e+00	0	0
2483125	2.191000e+00	-4.892900e+02	7.479080e+00	0	0
2485078	2.191000e+00	-4.981906e+02	5.211929e+00	0	0
2487031	2.191000e+00	-4.732976e+02	1.832442e-01	0	0
2488984	2.191000e+00	-4.641840e+02	-2.188030e+00	0	0
2490938	2.191000e+00	-4.816424e+02	-1.827287e+00	0	0
2492891	2.191000e+00	-4.447243e+02	2.764918e+00	0	0
2494844	2.191000e+00	-4.654875e+02	5.754479e+00	0	0
2496797	2.191000e+00	-5.527797e+02	4.017729e+00	0	0
2498750	2.191000e+00	-5.145612e+02	6.204413e+00	0	0
2500703	2.191000e+00	-5.048767e+02	9.962831e+00	0	0
2502656	2.191000e+00	-4.486452e+02	1.003175e+01	0	0
2504609	2.191000e+00	-4.156465e+02	8.200786e+00	0	0
2506563	2.191000e+00	-4.720478e+02	4.469042e+00	0	0
2508516	2.191000e+00	-4.561414e+02	1.189700e+00	0	0
2510469	2.191000e+00	-3.979351e+02	2.538942e-02	0	0
2512422	2.191000e+00	-4.144304e+02	-5.668481e-01	0	0
2514375	2.191000e+00	-4.683706e+02	-2.225074e+00	0	0
2516328	2.191000e+00	-4.856282e+02	-5.927180e+00	0	0
2518281	2.191000e+00	-5.190864e+02	-9.307276e+00	0	0
2520234	2.191000e+00	-4.775895e+02	-1.076894e+01	0	0
2522188	2.191000e+00	-4.476733e+02	-9.857927e+00	0	0
2524141	2.191000e+00	-4.752475e+02	-7.244473e+00	0	0
2526094	2.191000e+00	-4.649914e+02	-3.561683e+00	0	0
2528047	2.191000e+00	-4.468532e+02	-1.455428e+00	0	0
2530000	2.191000e+00	-4.720240e+02	-2.322631e+00	0	0
2531953	2.191000e+00	-5.227354e+02	-3.637019e+00	0	0
2533906	2.191000e+00	-5.181853e+02	-4.411268e+00	0	0
2535859	2.191000e+00	-5.005208e+02	-2.351512e+00	0	0
2537813	2.191000e+00	-5.505171e+02	1.159902e+00	0	0
2539766	2.191000e+00	-5.340138e+02	3.735087e+00	0	0
2541719	2.191000e+00	-4.669538e+02	5.786896e+00	0	0
2543672	2.191000e+00	-4.439648e+02	6.426092e+00	0	0
2545625	2.191000e+00	-4.480899e+02	4.494243e+00	0	0
2547578	2.191000e+00	-4.598194e+02	-8.633308e-01	0	0
2549531	2.191000e+00	-4.652108e+02	-8.214481e+00	0	0
2551484	2.191000e+00	-4.804493e+02	-1.195652e+01	0	0
2553438	2.191000e+00	-4.923964e+02	-1.256638e+01	0	0
2555391	2.191000e+00	-4.788592e+02	-1.756974e+01	0	0
2557344	2.191000e+00	-4.849048e+02	-2.449002e+01	0	0
2559297	2.191000e+00	-4.609177e+02	-2.824553e+01	0	0
2561250	2.191000e+00	-4.418968e+02	-2.934858e+01	0	0
2563203	2.191000e+00	-5.113463e+02	-2.693885e+01	0	0
2565156	2.191000e+00	-5.180578e+02	-2.140182e+01	0	0
2567109	2.191000e+00	-5.270459e+02	-1.253853e+01	0	0
2569063	2.191000e+00	-5.329930e+02	-5.889481e+00	0	0
2571016	2.191000e+00	-5.139872e+02	-4.038053e+00	0	0
2572969	2.191000e+00	-4.320685e+02	2.236074e-02	0	0
2574922	2.191000e+00	-3.905277e+02	5.629102e+00	0	0
2576875	2.191000e+00	-4.638100e+02	8.575295e+00	0	0
2578828	2.191000e+00	-4.438492e+02	9.185742e+00	0	0
2580781	2.191000e+00	-4.808904e+02	7.452123e+00	0	0
2582734	2.191000e+00	-5.017650e+02	4.666429e+00	0	0
2584688	2.191000e+00	-4.600366e+02	4.840440e+00	0	0
2586641	2.191000e+00	-4.426331e+02	6.326567e+00	0	0
2588594	2.191000e+00	-4.738409e+02	6.949542e+00	0	0
2590547	2.191000e+00	-4.588927e+02	5.729870e+00	0	0
2592500	2.191000e+00	-4.301144e+02	4.630984e+00	0	0
2594453	2.191000e+00	-4.997344e+02	5.695724e+00	0	0
2596406	2.191000e+00	-4.996077e+02	6.077481e+00	0	0
2598359	2.191000e+00	-4.934218e+02	5.863412e+00	0	0
2600313	2.191000e+00	-4.620920e+02	5.505036e+00	0	0
2602266	2.190517e+00	-4.180046e+02	4.920477e+00	0	0
2604219	2.190483e+00	-4.410962e+02	4.124046e+00	0	0
2606172	2.191000e+00	-4.316426e+02	3.193316e+00	0	0
2608125	2.191000e+00	-4.388205e+02	2.054876e+00	0	0
2610078	2.191000e+00	-4.208958e+02	1.551482e+00	0	0
2612031	2.191000e+00	-3.767182e+02	1.860946e+00	0	0
2613984	2.191000e+00	-3.378880e+02	2.126837e+00	0	0
2615938	2.190516e+00	-3.002419e+02	2.382913e+00	0	0
2617891	2.190484e+00	-3.333030e+02	2.675622e+00	0	0
2619844	2.191000e+00	-3.239382e+02	2.698532e+00	0	0
2621797	2.190516e+00	-3.289218e+02	2.327511e+00	0	0
2623750	2.190484e+00	-3.745665e+02	1.931207e+00	0	0
2625703	2.190516e+00	-3.170754e+02	1.559279e+00	0	0
2627656	2.190000e+00	-2.750322e+02	1.212597e+00	0	0
2629609	2.190484e+00	-3.242577e+02	8.990501e-01	0	0
2631563	2.190515e+00	-3.592189e+02	6.244092e-01	0	0
2633516	2.190000e+00	-3.288774e+02	3.957884e-01	0	0
2635469	2.190000e+00	-2.717995e+02	2.181400e-01	0	0
2637422	2.190000e+00	-2.565207e+02	1.025447e-01	0	0
2639375	2.190000e+00	-2.248802e+02	3.796696e-02	0	0
2641328	2.190485e+00	-2.152377e+02	9.448926e-02	0	0
2643281	2.190515e+00	-2.321627e+02	-8.225377e-02	0	0
2645234	2.190000e+00	-1.740108e+02	-3.975711e-01	0	0
2647188	2.190000e+00	-1.637465e+02	-3.641309e-01	0	0
2649141	2.190000e+00	-2.219433e+02	-9.755379e-02	0	0
2651094	2.190000e+00	-2.516823e+02	2.903564e-01	0	0
2653047	2.190000e+00	-2.666398e+02	7.047547e-01	0	0
2655000	2.190000e+00	-2.721411e+02	1.143642e+00	0	0
2656953	2.190000e+00	-2.269649e+02	1.591180e+00	0	0
2658906	2.190000e+00	-2.097803e+02	2.064911e+00	0	0
2660859	2.190000e+00	-2.258777e+02	2.465980e+00	0	0
2662813	2.190000e+00	-2.137414e+02	3.216258e+00	0	0
2664766	2.190000e+00	-2.433864e+02	4.800169e+00	0	0
2666719	2.190000e+00	-3.364881e+02	6.204303e+00	0	0
2668672	2.190000e+00	-3.535293e+02	6.752135e+00	0	0
2670625	2.190000e+00	-3.231200e+02	6.620040e+00	0	0
2672578	2.190000e+00	-3.870438e+02	5.651245e+00	0	0
2674531	2.190000e+00	-4.252038e+02	3.962197e+00	0	0
2676484	2.190000e+00	-4.388106e+02	3.316447e+00	0	0
2678438	2.190000e+00	-5.154538e+02	3.543654e+00	0	0
2680391	2.190000e+00	-5.418275e+02	3.410047e+00	0	0
2682344	2.190000e+00	-4.993384e+02	3.286783e+00	0	0
2684297	2.190000e+00	-4.666884e+02	3.472877e+00	0	0
2686250	2.190000e+00	-5.028604e+02	3.405525e+00	0	0
2688203	2.190000e+00	-5.054864e+02	1.825397e+00	0	0
2690156	2.190000e+00	-4.069896e+02	-2.016151e-01	0	0
2692109	2.190000e+00	-4.445454e+02	-1.884092e+00	0	0
2694063	2.190000e+00	-4.990702e+02	-2.590903e+00	0	0
2696016	2.190000e+00	-4.788222e+02	-1.146400e+00	0	0
2697969	2.190000e+00	-5.121557e+02	3.157124e+00	0	0
2699922	2.190000e+00	-5.765908e+02	6.973776e+00	0	0
2701875	2.190000e+00	-5.758414e+02	8.585048e+00	0	0
2703828	2.190000e+00	-5.582294e+02	9.589769e+00	0	0
2705781	2.190000e+00	-6.117090e+02	1.286007e+01	0	0
2707734	2.190000e+00	-6.132256e+02	1.752075e+01	0	0
2709688	2.190000e+00	-6.020954e+02	1.966525e+01	0	0
2711641	2.190000e+00	-6.446555e+02	1.994677e+01	0	0
2713594	2.190000e+00	-7.013738e+02	1.744643e+01	0	0
2715547	2.190000e+00	-7.949198e+02	1.410727e+01	0	0
2717500	2.190000e+00	-7.819929e+02	1.222901e+01	0	0
2719453	2.190000e+00	-6.934806e+02	1.033189e+01	0	0
2721406	2.190000e+00	-6.669049e+02	8.520702e+00	0	0
2723359	2.190000e+00	-6.300204e+02	8.007350e+00	0	0
2725313	2.190000e+00	-5.853048e+02	7.954216e+00	0	0
2727266	2.190000e+00	-5.279711e+02	7.827265e+00	0	0
2729219	2.190000e+00	-5.184466e+02	6.342977e+00	0	0
2731172	2.190000e+00	-5.339668e+02	3.908308e+00	0	0
2733125	2.190000e+00	-5.155213e+02	2.241795e+00	0	0
2735078	2.190000e+00	-5.036301e+02	1.038390e+00	0	0
2737031	2.190000e+00	-5.397840e+02	5.717549e-01	0	0
2738984	2.190000e+00	-5.487769e+02	8.071028e-01	0	0
2740938	2.190000e+00	-5.082527e+02	1.232880e+00	0	0
2742891	2.190000e+00	-5.068063e+02	1.613459e+00	0	0
2744844	2.190000e+00	-5.302394e+02	1.973253e+00	0	0
2746797	2.190000e+00	-5.406542e+02	2.289299e+00	0	0
2748750	2.190000e+00	-4.948346e+02	2.526886e+00	0	0
2750703	2.190000e+00	-4.473294e+02	2.767942e+00	0	0
2752656	2.190000e+00	-4.480195e+02	2.692059e+00	0	0
2754609	2.190000e+00	-4.983454e+02	2.193672e+00	0	0
2756563	2.190000e+00	-5.695016e+02	1.863780e+00	0	0
2758516	2.190000e+00	-6.612645e+02	1.763066e+00	0	0
2760469	2.190000e+00	-7.377761e+02	1.684235e+00	0	0
2762422	2.190000e+00	-7.431536e+02	1.607046e+00	0	0
2764375	2.190000e+00	-7.201315e+02	1.533753e+00	0	0
2766328	2.190000e+00	-6.518610e+02	1.464101e+00	0	0
2768281	2.190000e+00	-5.801404e+02	1.397086e+00	0	0
2770234	2.190000e+00	-4.568896e+02	1.338264e+00	0	0
2772188	2.190000e+00	-3.506455e+02	1.291277e+00	0	0
2774141	2.190000e+00	-2.863343e+02	1.248147e+00	0	0
2776094	2.190000e+00	-1.207477e+02	1.212443e+00	0	0
2778047	2.189507e+00	6.324815e+01	1.164423e+00	0	0
2780000	2.189493e+00	3.094492e+02	1.191064e+00	0	0
2781953	2.190000e+00	5.926495e+02	1.223329e+00	0	0
2783906	2.190000e+00	8.438128e+02	1.123157e+00	0	0
2785859	2.190000e+00	1.192881e+03	8.792476e-01	0	0
2787813	2.190000e+00	1.476418e+03	5.453733e-01	0	0
2789766	2.190000e+00	1.545817e+03	2.164597e-01	0	0
2791719	2.190000e+00	1.565865e+03	-1.268135e-01	0	0
2793672	2.190000e+00	1.451619e+03	-4.742263e-01	0	0
2795625	2.189506e+00	1.034137e+03	-8.178790e-01	0	0
2797578	2.189494e+00	6.724203e+02	-1.160966e+00	0	0
2799531	2.189506e+00	4.929474e+02	-1.508872e+00	0	0
2801484	2.189494e+00	2.359937e+02	-1.858639e+00	0	0
2803438	2.190000e+00	1.975713e+01	-2.209349e+00	0	0
2805391	2.190000e+00	-1.355154e+02	-2.559050e+00	0	0
2807344	2.190000e+00	-2.757184e+02	-2.906454e+00	0	0
2809297	2.190000e+00	-3.675141e+02	-3.250085e+00	0	0
2811250	2.190000e+00	-4.609165e+02	-3.588375e+00	0	0
2813203	2.189505e+00	-5.593185e+02	-3.920135e+00	0	0
2815156	2.189000e+00	-6.487571e+02	-4.242336e+00	0	0
2817109	2.189000e+00	-7.019602e+02	-4.549044e+00	0	0
2819063	2.189000e+00	-9.554922e+02	-4.835604e+00	0	0
2821016	2.189000e+00	-1.162295e+03	-5.100867e+00	0	0
2822969	2.189000e+00	-1.050347e+03	-5.346554e+00	0	0
2824922	2.189000e+00	-9.154019e+02	-5.571591e+00	0	0
2826875	2.189000e+00	-7.931505e+02	-5.772722e+00	0	0
2828828	2.189000e+00	-6.313777e+02	-5.947474e+00	0	0
2830781	2.189000e+00	-4.789593e+02	-6.092281e+00	0	0
2832734	2.189000e+00	-3.810736e+02	-6.207171e+00	0	0
2834688	2.189000e+00	-3.003338e+02	-6.270283e+00	0	0
2836641	2.189000e+00	-2.964678e+02	-6.146215e+00	0	0
2838594	2.189000e+00	-4.566530e+02	-6.010872e+00	0	0
2840547	2.189000e+00	-5.813321e+02	-5.001031e+00	0	0
2842500	2.189000e+00	-5.778355e+02	-3.453704e+00	0	0
2844453	2.189000e+00	-5.151202e+02	-2.812498e+00	0	0
2846406	2.189000e+00	-4.197545e+02	-2.990882e+00	0	0
2848359	2.189000e+00	-3.796301e+02	-2.649358e+00	0	0
2850313	2.189000e+00	-3.435227e+02	-1.514721e+00	0	0
2852266	2.189000e+00	-2.934709e+02	-4.996221e-01	0	0
2854219	2.189000e+00	-2.645204e+02	4.519194e-01	0	0
2856172	2.189000e+00	-2.540681e+02	1.668883e+00	0	0
2858125	2.189000e+00	-2.426143e+02	1.795498e+00	0	0
2860078	2.189000e+00	-2.858760e+02	3.339744e-01	0	0
2862031	2.189000e+00	-3.617874e+02	-8.294924e-01	0	0
2863984	2.189000e+00	-3.547816e+02	-1.462520e+00	0	0
2865938	2.189000e+00	-3.430460e+02	-2.474466e+00	0	0
2867891	2.189000e+00	-3.564539e+02	-3.610922e+00	0	0
2869844	2.189000e+00	-3.825414e+02	-4.422371e+00	0	0
2871797	2.189000e+00	-4.273418e+02	-5.337442e+00	0	0
2873750	2.189000e+00	-4.470056e+02	-6.441396e+00	0	0
2875703	2.189000e+00	-4.787297e+02	-7.086874e+00	0	0
2877656	2.189000e+00	-4.726388e+02	-5.000070e+00	0	0
2879609	2.189000e+00	-5.401894e+02	1.839084e-01	0	0
2881563	2.189000e+00	-6.317539e+02	7.937643e+00	0	0
2883516	2.189000e+00	-7.148450e+02	1.446186e+01	0	0
2885469	2.189000e+00	-7.639683e+02	1.656552e+01	0	0
2887422	2.189000e+00	-7.486515e+02	2.014245e+01	0	0
2889375	2.189000e+00	-7.396438e+02	2.717616e+01	0	0
2891328	2.189000e+00	-7.460590e+02	3.327403e+01	0	0
2893281	2.189000e+00	-9.672106e+02	3.679315e+01	0	0
2895234	2.189000e+00	-1.135394e+03	3.677365e+01	0	0
2897188	2.189000e+00	-1.073841e+03	3.244804e+01	0	0
2899141	2.189000e+00	-8.812507e+02	2.308251e+01	0	0
2901094	2.189000e+00	-5.470524e+02	1.561465e+01	0	0
2903047	2.189000e+00	-1.921817e+02	1.207558e+01	0	0
2905000	2.189000e+00	2.718390e+01	5.727072e+00	0	0
2906953	2.189000e+00	8.717343e+01	9.506074e-02	0	0
2908906	2.189000e+00	9.193720e+01	-2.582041e+00	0	0
2910859	2.189000e+00	9.561077e+01	-2.999815e+00	0	0
2912813	2.189000e+00	2.998788e+01	-7.930965e-01	0	0
2914766	2.189000e+00	-5.129316e+01	1.388361e-01	0	0
2916719	2.189000e+00	-1.462473e+02	-9.673965e-01	0	0
2918672	2.189000e+00	-2.871978e+02	-4.670757e-01	0	0
2920625	2.189000e+00	-3.384302e+02	1.063808e+00	0	0
2922578	2.189000e+00	-3.606932e+02	7.496516e-01	0	0
2924531	2.189000e+00	-4.106283e+02	-4.528558e-01	0	0
2926484	2.189000e+00	-4.383089e+02	-1.363215e+00	0	0
2928438	2.189000e+00	-4.526867e+02	-1.521688e+00	0	0
2930391	2.189000e+00	-4.240768e+02	-7.177723e-01	0	0
2932344	2.189000e+00	-3.380558e+02	-1.723768e-01	0	0
2934297	2.189000e+00	-2.377300e+02	-9.325165e-02	0	0
2936250	2.189000e+00	-2.890157e+02	-1.311502e-01	0	0
2938203	2.189000e+00	-3.478989e+02	-1.651176e-01	0	0
2940156	2.189000e+00	-3.046187e+02	-2.081844e-01	0	0
2942109	2.189000e+00	-3.943771e+02	-3.042209e-01	0	0
2944063	2.189000e+00	-4.981659e+02	-2.271232e-01	0	0
2946016	2.189000e+00	-5.831369e+02	2.120160e-01	0	0
2947969	2.189000e+00	-5.983084e+02	7.729726e-01	0	0
2949922	2.189000e+00	-4.328145e+02	1.347219e+00	0	0
2951875	2.189000e+00	-3.030979e+02	1.951689e+00	0	0
2953828	2.189000e+00	-1.270260e+02	2.575918e+00	0	0
2955781	2.189000e+00	-1.337717e+02	3.220217e+00	0	0
2957734	2.189000e+00	-2.778226e+02	3.845370e+00	0	0
2959688	2.189000e+00	-3.412212e+02	3.986945e+00	0	0
2961641	2.189000e+00	-4.605373e+02	3.782613e+00	0	0
2963594	2.189000e+00	-5.095423e+02	3.632719e+00	0	0
2965547	2.189000e+00	-5.928999e+02	3.518571e+00	0	0
2967500	2.189000e+00	-6.390186e+02	3.133921e+00	0	0
2969453	2.189000e+00	-7.030139e+02	2.449334e+00	0	0
2971406	2.189000e+00	-8.286558e+02	2.162183e+00	0	0
2973359	2.189000e+00	-6.712912e+02	2.170935e+00	0	0
2975313	2.189000e+00	-4.994834e+02	2.116796e+00	0	0
2977266	2.189000e+00	-3.682644e+02	2.115394e+00	0	0
2979219	2.189000e+00	-2.004947e+02	2.344566e+00	0	0
2981172	2.189000e+00	1.906692e+01	2.860351e+00	0	0
2983125	2.189000e+00	3.296971e+02	3.633190e+00	0	0
2985078	2.189000e+00	3.187859e+02	4.606670e+00	0	0
2987031	2.189000e+00	2.084086e+02	5.896579e+00	0	0
2988984	2.189000e+00	2.869346e+02	6.781691e+00	0	0
2990938	2.189000e+00	2.728375e+02	5.871934e+00	0	0
2992891	2.189000e+00	2.159515e+02	3.690905e+00	0	0
2994844	2.189000e+00	2.182661e+02	1.541284e+00	0	0
2996797	2.189000e+00	1.429992e+02	-4.846721e-01	0	0
2998750	2.189000e+00	6.563913e+01	-2.975602e+00	0	0
3000703	2.189000e+00	-1.749115e+02	-4.221507e+00	0	0
3002656	2.189000e+00	-4.237492e+02	-4.021009e+00	0	0
3004609	2.189000e+00	-5.087487e+02	-3.673786e+00	0	0
3006563	2.189000e+00	-6.272846e+02	-2.822305e+00	0	0
3008516	2.189000e+00	-6.171793e+02	-1.662288e+00	0	0
3010469	2.189000e+00	-4.858126e+02	-3.165978e-01	0	0
3012422	2.189000e+00	-3.299786e+02	1.189499e+00	0	0
3014375	2.189000e+00	-1.019555e+02	2.889251e+00	0	0
3016328	2.189000e+00	1.420097e+02	5.388777e+00	0	0
3018281	2.189000e+00	2.482498e+02	6.655174e+00	0	0
3020234	2.189000e+00	1.129083e+02	5.366133e+00	0	0
3022188	2.189000e+00	6.205450e+01	2.688454e+00	0	0
3024141	2.188493e+00	5.314455e+01	3.005343e+00	0	0
3026094	2.188507e+00	1.875357e+02	8.576941e+00	0	0
3028047	2.189000e+00	2.127658e+02	1.576031e+01	0	0
3030000	2.189000e+00	-4.358024e+01	2.350348e+01	0	0
3031953	2.189000e+00	-1.809964e+02	2.988250e+01	0	0
3033906	2.188492e+00	-1.163058e+02	3.572442e+01	0	0
3035859	2.188508e+00	-4.399571e+01	3.752348e+01	0	0
3037813	2.188492e+00	-1.227284e+02	2.000156e+01	0	0
3039766	2.188000e+00	-1.302208e+01	-1.500600e+00	0	0
3041719	2.188508e+00	-9.295117e+00	-3.089796e+01	0	0
3043672	2.189000e+00	-1.974826e+01	-5.955433e+01	0	0
3045625	2.189000e+00	-1.229216e+01	-4.769015e+01	0	0
3047578	2.189000e+00	2.440717e+01	-1.887226e+01	0	0
3049531	2.188491e+00	1.235338e+02	1.769830e+01	0	0
3051484	2.188509e+00	1.199797e+02	4.035011e+01	0	0
3053438	2.189000e+00	2.258558e+02	3.997329e+01	0	0
3055391	2.188491e+00	2.848145e+02	4.000145e+01	0	0
3057344	2.188509e+00	2.828123e+02	1.874474e+01	0	0
3059297	2.188491e+00	3.428895e+02	-1.196801e+01	0	0
3061250	2.188000e+00	3.000814e+02	-2.847988e+01	0	0
3063203	2.188509e+00	7.154669e+01	-2.234271e+01	0	0
3065156	2.188491e+00	-5.002783e+01	-2.590783e+00	0	0
3067109	2.188000e+00	-8.375095e+01	4.532496e+00	0	0
3069063	2.188510e+00	-7.920772e+01	1.016864e+01	0	0
3071016	2.188490e+00	-6.349851e+01	1.722379e+01	0	0
3072969	2.188000e+00	-1.160132e+02	1.252585e+01	0	0
3074922	2.188000e+00	-2.557154e+02	4.596433e+00	0	0
3076875	2.188000e+00	-4.767690e+02	2.885654e+00	0	0
3078828	2.188000e+00	-4.612095e+02	1.108889e+00	0	0
3080781	2.188000e+00	-3.201940e+02	-1.867561e+00	0	0
3082734	2.188000e+00	-1.271914e+02	-1.124652e+00	0	0
3084688	2.188000e+00	-4.480700e+01	1.391151e+00	0	0
3086641	2.188000e+00	-1.498696e+02	2.647292e+00	0	0
3088594	2.188000e+00	-2.337709e+02	2.347007e+00	0	0
3090547	2.188000e+00	-4.005189e+02	2.271771e+00	0	0
3092500	2.188000e+00	-5.141615e+02	2.136142e+00	0	0
3094453	2.188000e+00	-4.702936e+02	1.943071e+00	0	0
3096406	2.188000e+00	-4.426271e+02	2.060890e+00	0	0
3098359	2.188000e+00	-6.455449e+02	2.389170e+00	0	0
3100313	2.188000e+00	-7.690525e+02	1.922762e+00	0	0
3102266	2.188000e+00	-5.925521e+02	1.537884e+00	0	0
3104219	2.188000e+00	-3.374700e+02	1.628234e+00	0	0
3106172	2.188000e+00	-2.512282e+02	1.584917e+00	0	0
3108125	2.188000e+00	-2.173900e+02	1.592002e+00	0	0
3110078	2.188000e+00	-1.732827e+02	1.527798e+00	0	0
3112031	2.188000e+00	-1.385955e+02	1.698842e+00	0	0
3113984	2.188000e+00	-7.221853e+01	8.365302e-01	0	0
3115938	2.188000e+00	-4.013734e+02	5.853230e-01	0	0
3117891	2.188000e+00	-6.618032e+02	1.453103e+00	0	0
3119844	2.188000e+00	-7.341632e+02	1.502127e+00	0	0
3121797	2.188000e+00	-7.899673e+02	1.511372e+00	0	0
3123750	2.188513e+00	-7.713073e+02	1.392702e+00	0	0
3125703	2.188487e+00	-7.353786e+02	1.941794e+00	0	0
3127656	2.188000e+00	-6.400785e+02	3.412276e+00	0	0
3129609	2.188000e+00	-5.767176e+02	4.222363e+00	0	0
3131563	2.188000e+00	-4.495072e+02	2.924916e+00	0	0
3133516	2.188000e+00	-3.032142e+02	1.216569e+00	0	0
3135469	2.188000e+00	-1.163577e+02	7.466509e-01	0	0
3137422	2.188000e+00	-6.529360e+00	4.368852e-01	0	0
3139375	2.188000e+00	-6.857540e+01	4.258838e-01	0	0
3141328	2.188000e+00	-1.418144e+02	-1.105930e+00	0	0
3143281	2.188000e+00	-1.996217e+02	-3.245689e+00	0	0
3145234	2.188000e+00	-2.356905e+02	-3.317812e+00	0	0
3147188	2.188000e+00	-2.268440e+02	-1.451424e+00	0	0
3149141	2.188000e+00	-2.838003e+02	-3.707602e-01	0	0
3151094	2.188000e+00	-3.382375e+02	-6.678928e-01	0	0
3153047	2.188000e+00	-3.939383e+02	-5.506247e-01	0	0
3155000	2.188000e+00	-3.804484e+02	-6.307086e-01	0	0
3156953	2.188000e+00	-3.946905e+02	6.711387e-01	0	0
3158906	2.188000e+00	-4.163288e+02	1.972057e+00	0	0
3160859	2.188000e+00	-3.860256e+02	6.784290e-01	0	0
3162813	2.188000e+00	-5.022413e+02	-1.071500e-01	0	0
3164766	2.188000e+00	-6.367004e+02	3.041388e-01	0	0
3166719	2.188000e+00	-6.359280e+02	4.668554e-01	0	0
3168672	2.188000e+00	-5.869996e+02	7.043004e-01	0	0
3170625	2.188000e+00	-6.040191e+02	9.261206e-01	0	0
3172578	2.188000e+00	-5.799033e+02	1.158080e+00	0	0
3174531	2.188000e+00	-4.131703e+02	1.384740e+00	0	0
3176484	2.188000e+00	-3.056611e+02	1.604661e+00	0	0
3178438	2.188000e+00	-3.096391e+02	1.833979e+00	0	0
3180391	2.188000e+00	-3.464326e+02	2.071345e+00	0	0
3182344	2.188000e+00	-3.707749e+02	2.327669e+00	0	0
3184297	2.188000e+00	-3.746320e+02	2.460492e+00	0	0
3186250	2.188000e+00	-4.360600e+02	2.488051e+00	0	0
3188203	2.188000e+00	-5.920590e+02	2.537877e+00	0	0
3190156	2.188000e+00	-6.944109e+02	2.581348e+00	0	0
3192109	2.188000e+00	-6.219265e+02	2.626089e+00	0	0
3194063	2.188000e+00	-4.556284e+02	2.670034e+00	0	0
3196016	2.188000e+00	-2.823048e+02	2.713654e+00	0	0
3197969	2.188000e+00	-2.501711e+02	2.756789e+00	0	0
3199922	2.188000e+00	-2.865557e+02	2.799445e+00	0	0
3201875	2.188000e+00	-3.085914e+02	2.841570e+00	0	0
3203828	2.188000e+00	-3.576376e+02	2.883819e+00	0	0
3205781	2.188000e+00	-3.810658e+02	2.939212e+00	0	0
3207734	2.188000e+00	-4.002772e+02	3.003548e+00	0	0
3209688	2.188000e+00	-5.372339e+02	3.065181e+00	0	0
3211641	2.188000e+00	-6.714169e+02	3.126602e+00	0	0
3213594	2.188000e+00	-6.443967e+02	3.187113e+00	0	0
3215547	2.188000e+00	-4.469651e+02	3.246865e+00	0	0
3217500	2.188000e+00	-3.314041e+02	3.305770e+00	0	0
3219453	2.188000e+00	-3.016591e+02	3.363817e+00	0	0
3221406	2.188000e+00	-2.455025e+02	3.420931e+00	0	0
3223359	2.188000e+00	-2.727035e+02	3.477207e+00	0	0
3225313	2.188000e+00	-3.361862e+02	3.532157e+00	0	0
3227266	2.188000e+00	-3.691628e+02	3.587482e+00	0	0
3229219	2.188000e+00	-4.123451e+02	3.636482e+00	0	0
3231172	2.188000e+00	-4.194096e+02	3.704238e+00	0	0
3233125	2.188000e+00	-3.387494e+02	3.700513e+00	0	0
3235078	2.188000e+00	-3.196586e+02	4.033583e+00	0	0
3237031	2.188000e+00	-3.466598e+02	4.235386e+00	0	0
3238984	2.188000e+00	-3.508528e+02	5.960768e+00	0	0
3240938	2.188000e+00	-3.842681e+02	8.705015e+00	0	0
3242891	2.188000e+00	-4.102165e+02	9.810002e+00	0	0
3244844	2.188000e+00	-4.298287e+02	9.468161e+00	0	0
3246797	2.188000e+00	-3.776887e+02	7.136629e+00	0	0
3248750	2.188000e+00	-2.994148e+02	5.780158e+00	0	0
3250703	2.188000e+00	-3.446408e+02	6.078158e+00	0	0
3252656	2.188000e+00	-3.653724e+02	6.162170e+00	0	0
3254609	2.188000e+00	-3.734297e+02	5.821350e+00	0	0
3256563	2.188000e+00	-4.234142e+02	3.295313e+00	0	0
3258516	2.188000e+00	-4.101673e+02	3.956932e-01	0	0
3260469	2.188000e+00	-3.398639e+02	-7.739387e-01	0	0
3262422	2.188000e+00	-2.494864e+02	-3.348247e-01	0	0
3264375	2.188000e+00	-1.834643e+02	2.018621e+00	0	0
3266328	2.188000e+00	-1.817919e+02	5.081838e+00	0	0
3268281	2.188000e+00	-2.108329e+02	6.041819e+00	0	0
3270234	2.188000e+00	-1.989360e+02	5.733897e+00	0	0
3272188	2.188000e+00	-1.388567e+02	5.296291e+00	0	0
3274141	2.188000e+00	-1.073488e+02	6.580851e+00	0	0
3276094	2.188000e+00	-8.833913e+01	9.543618e+00	0	0
3278047	2.188000e+00	-8.472170e+01	1.141607e+01	0	0
3280000	2.188000e+00	-1.396699e+02	1.230960e+01	0	0
3281953	2.188000e+00	-1.902523e+02	1.208889e+01	0	0
3283906	2.188000e+00	-2.218547e+02	1.057878e+01	0	0
3285859	2.188000e+00	-2.126419e+02	7.305954e+00	0	0
3287813	2.188000e+00	-1.561708e+02	4.973254e+00	0	0
3289766	2.188000e+00	-1.054443e+02	4.861385e+00	0	0
3291719	2.188000e+00	-9.207576e+01	4.833085e+00	0	0
3293672	2.188000e+00	-1.118288e+02	5.161858e+00	0	0
3295625	2.188000e+00	-1.282008e+02	3.681825e+00	0	0
3297578	2.188000e+00	-1.208888e+02	9.408405e-01	0	0
3299531	2.188000e+00	-8.551115e+01	-5.579268e-01	0	0
3301484	2.188000e+00	-9.831029e+01	-9.436568e-01	0	0
3303438	2.188000e+00	-1.222348e+02	1.886272e-02	0	0
3305391	2.188000e+00	-1.059299e+02	1.582823e+00	0	0
3307344	2.188000e+00	-1.017209e+02	3.769918e+00	0	0
3309297	2.188000e+00	-1.396885e+02	4.719554e+00	0	0
3311250	2.188000e+00	-1.731008e+02	4.264920e+00	0	0
3313203	2.188000e+00	-1.741038e+02	4.012255e+00	0	0
3315156	2.188000e+00	-2.042781e+02	3.760130e+00	0	0
3317109	2.188000e+00	-2.613057e+02	3.675354e+00	0	0
3319063	2.188000e+00	-3.100595e+02	3.578190e+00	0	0
3321016	2.188000e+00	-3.930359e+02	3.432127e+00	0	0
3322969	2.188000e+00	-4.185837e+02	3.325369e+00	0	0
3324922	2.188000e+00	-3.974574e+02	3.238426e+00	0	0
3326875	2.188000e+00	-3.894004e+02	3.175751e+00	0	0
3328828	2.188000e+00	-3.471471e+02	3.135319e+00	0	0
3330781	2.188000e+00	-3.481635e+02	3.116839e+00	0	0
3332734	2.188000e+00	-3.607297e+02	3.119555e+00	0	0
3334688	2.188000e+00	-3.741080e+02	3.142854e+00	0	0
3336641	2.188000e+00	-3.832258e+02	3.186045e+00	0	0
3338594	2.188000e+00	-4.032017e+02	3.248482e+00	0	0
3340547	2.188000e+00	-4.028067e+02	3.329504e+00	0	0
3342500	2.188000e+00	-3.779685e+02	3.428460e+00	0	0
3344453	2.188000e+00	-3.878199e+02	3.544672e+00	0	0
3346406	2.188000e+00	-3.959767e+02	3.677556e+00	0	0
3348359	2.188000e+00	-4.090010e+02	3.826185e+00	0	0
3350313	2.188000e+00	-4.463772e+02	3.991574e+00	0	0
3352266	2.188000e+00	-4.495080e+02	4.180159e+00	0	0
3354219	2.188000e+00	-4.723616e+02	4.403036e+00	0	0
3356172	2.188000e+00	-5.173682e+02	4.647521e+00	0	0
3358125	2.188000e+00	-5.158447e+02	4.949333e+00	0	0
3360078	2.188000e+00	-4.747264e+02	5.038878e+00	0	0
3362031	2.188000e+00	-3.989427e+02	4.939383e+00	0	0
3363984	2.188000e+00	-3.614571e+02	4.875747e+00	0	0
3365938	2.188000e+00	-3.662020e+02	4.797133e+00	0	0
3367891	2.188000e+00	-3.748011e+02	4.717426e+00	0	0
3369844	2.188000e+00	-4.024370e+02	4.633180e+00	0	0
3371797	2.188000e+00	-4.185981e+02	4.545255e+00	0	0
3373750	2.188000e+00	-4.045480e+02	4.454643e+00	0	0
3375703	2.188000e+00	-4.138896e+02	4.357552e+00	0	0
3377656	2.188000e+00	-4.188240e+02	4.269183e+00	0	0
3379609	2.188000e+00	-4.116481e+02	4.133556e+00	0	0
3381563	2.188000e+00	-4.119718e+02	4.212051e+00	0	0
3383516	2.188000e+00	-4.219202e+02	4.507491e+00	0	0
3385469	2.188000e+00	-4.234791e+02	4.773554e+00	0	0
3387422	2.188000e+00	-4.417127e+02	4.998338e+00	0	0
3389375	2.188000e+00	-4.713469e+02	5.098022e+00	0	0
3391328	2.188530e+00	-4.849405e+02	4.252975e+00	0	0
3393281	2.188470e+00	-4.602215e+02	2.975023e+00	0	0
3395234	2.188000e+00	-4.229540e+02	2.547337e+00	0	0
3397188	2.188000e+00	-4.268701e+02	4.164983e+00	0	0
3399141	2.188000e+00	-4.212630e+02	5.802202e+00	0	0
3401094	2.188531e+00	-4.208305e+02	6.006684e+00	0	0
3403047	2.189000e+00	-4.363486e+02	6.204065e+00	0	0
3405000	2.188469e+00	-4.412648e+02	6.096285e+00	0	0
3406953	2.188531e+00	-4.596057e+02	7.276895e+00	0	0
3408906	2.188469e+00	-4.322177e+02	9.813594e+00	0	0
3410859	2.188531e+00	-4.071547e+02	1.130515e+01	0	0
3412813	2.188468e+00	-3.297133e+02	1.066168e+01	0	0
3414766	2.188532e+00	-2.329379e+02	9.111963e+00	0	0
3416719	2.188468e+00	-1.374083e+02	8.591494e+00	0	0
3418672	2.188532e+00	2.374434e+00	8.464483e+00	0	0
3420625	2.189000e+00	1.465524e+02	7.966488e+00	0	0
3422578	2.189000e+00	4.012667e+02	7.463905e+00	0	0
3424531	2.189000e+00	6.782386e+02	6.173792e+00	0	0
3426484	2.189000e+00	9.489767e+02	4.770772e+00	0	0
3428438	2.189000e+00	1.205239e+03	4.522895e+00	0	0
3430391	2.189000e+00	1.440815e+03	4.304887e+00	0	0
3432344	2.189000e+00	1.645822e+03	3.749432e+00	0	0
3434297	2.189000e+00	1.719218e+03	3.232943e+00	0	0
3436250	2.189000e+00	1.657720e+03	2.692705e+00	0	0
3438203	2.189000e+00	1.459279e+03	2.128867e+00	0	0
3440156	2.189000e+00	1.106149e+03	1.799300e+00	0	0
3442109	2.189000e+00	8.803887e+02	1.653034e+00	0	0
3444063	2.189000e+00	6.735474e+02	1.469277e+00	0	0
3446016	2.189000e+00	4.281490e+02	1.298680e+00	0	0
3447969	2.189000e+00	2.156295e+02	1.127198e+00	0	0
3449922	2.189000e+00	-7.321303e+01	9.613316e-01	0	0
3451875	2.189000e+00	-2.306297e+02	7.901610e-01	0	0
3453828	2.189000e+00	-2.913915e+02	6.691587e-01	0	0
3455781	2.189000e+00	-3.625803e+02	7.334829e-01	0	0
3457734	2.189000e+00	-4.043256e+02	7.877361e-01	0	0
3459688	2.189000e+00	-4.304628e+02	6.171130e-01	0	0
3461641	2.189000e+00	-4.275443e+02	-3.270345e-02	0	0
3463594	2.189000e+00	-3.992010e+02	-6.610448e-01	0	0
3465547	2.189000e+00	-4.076455e+02	-1.240074e+00	0	0
3467500	2.189000e+00	-3.732330e+02	-9.807482e-01	0	0
3469453	2.189000e+00	-3.411218e+02	-3.836664e-01	0	0
3471406	2.189000e+00	-3.501394e+02	-1.740951e+00	0	0
3473359	2.189000e+00	-3.491444e+02	-2.958010e+00	0	0
3475313	2.189000e+00	-3.381621e+02	-3.201572e+00	0	0
3477266	2.189000e+00	-2.882877e+02	-3.582225e+00	0	0
3479219	2.189000e+00	-2.620950e+02	-4.099233e+00	0	0
3481172	2.189000e+00	-2.704463e+02	-6.767191e+00	0	0
3483125	2.189000e+00	-2.736798e+02	-9.931619e+00	0	0
3485078	2.189000e+00	-2.788869e+02	-1.154568e+01	0	0
3487031	2.189000e+00	-2.854767e+02	-1.215506e+01	0	0
3488984	2.189000e+00	-2.816432e+02	-1.147439e+01	0	0
3490938	2.189000e+00	-3.142545e+02	-9.625394e+00	0	0
3492891	2.189000e+00	-3.363329e+02	-6.445695e+00	0	0
3494844	2.189000e+00	-2.818664e+02	-5.043892e+00	0	0
3496797	2.189000e+00	-2.722348e+02	-5.265765e+00	0	0
3498750	2.189000e+00	-2.808230e+02	-5.342248e+00	0	0
3500703	2.189000e+00	-2.958348e+02	-4.099843e+00	0	0
3502656	2.189000e+00	-3.129544e+02	-7.564778e-01	0	0
3504609	2.189000e+00	-3.117579e+02	2.813555e+00	0	0
3506563	2.189000e+00	-2.971339e+02	6.062291e+00	0	0
3508516	2.189000e+00	-2.664080e+02	8.979051e+00	0	0
3510469	2.189538e+00	-2.495873e+02	1.139181e+01	0	0
3512422	2.189462e+00	-2.437410e+02	1.337446e+01	0	0
3514375	2.189538e+00	-2.622307e+02	1.400128e+01	0	0
3516328	2.190000e+00	-2.632551e+02	1.166672e+01	0	0
3518281	2.190000e+00	-2.767552e+02	6.404353e+00	0	0
3520234	2.190000e+00	-3.021299e+02	-3.290126e-01	0	0
3522188	2.190000e+00	-3.122448e+02	-2.222388e+00	0	0
3524141	2.190000e+00	-3.109016e+02	-2.587320e+00	0	0
3526094	2.190000e+00	-3.025645e+02	-8.157026e+00	0	0
3528047	2.190000e+00	-2.794081e+02	-1.438757e+01	0	0
3530000	2.190000e+00	-2.575680e+02	-1.843634e+01	0	0
3531953	2.190000e+00	-2.672902e+02	-2.061896e+01	0	0
3533906	2.190000e+00	-2.419864e+02	-2.014507e+01	0	0
3535859	2.190000e+00	-2.061998e+02	-1.628270e+01	0	0
3537813	2.190000e+00	-2.039379e+02	-8.153993e+00	0	0
3539766	2.190000e+00	-2.190595e+02	-5.722572e-01	0	0
3541719	2.190000e+00	-2.403913e+02	1.424073e+00	0	0
3543672	2.190000e+00	-2.482437e+02	8.000795e+00	0	0
3545625	2.190000e+00	-2.349282e+02	1.718124e+01	0	0
3547578	2.190000e+00	-2.127364e+02	2.194128e+01	0	0
3549531	2.190000e+00	-2.041602e+02	2.362837e+01	0	0
3551484	2.190000e+00	-2.138378e+02	2.126170e+01	0	0
3553438	2.190000e+00	-2.206248e+02	1.429372e+01	0	0
3555391	2.190000e+00	-2.156063e+02	5.767372e+00	0	0
3557344	2.190000e+00	-2.011944e+02	4.022912e+00	0	0
3559297	2.190000e+00	-1.915799e+02	6.492849e-01	0	0
3561250	2.190000e+00	-1.873775e+02	-6.131248e+00	0	0
3563203	2.190000e+00	-2.157246e+02	-9.250102e+00	0	0
3565156	2.190000e+00	-2.569623e+02	-1.086302e+01	0	0
3567109	2.190000e+00	-2.518774e+02	-1.130704e+01	0	0
3569063	2.190542e+00	-2.347626e+02	-1.048281e+01	0	0
3571016	2.190458e+00	-1.966261e+02	-8.464739e+00	0	0
3572969	2.190000e+00	-1.455051e+02	-5.135265e+00	0	0
3574922	2.190543e+00	-1.300056e+02	-8.544301e-01	0	0
3576875	2.191000e+00	-1.273086e+02	3.976620e+00	0	0
3578828	2.191000e+00	-1.291899e+02	6.974199e+00	0	0
3580781	2.191000e+00	-1.485691e+02	7.500481e+00	0	0
3582734	2.191000e+00	-1.603093e+02	7.400669e+00	0	0
3584688	2.191000e+00	-1.844882e+02	7.265420e+00	0	0
3586641	2.191000e+00	-2.013372e+02	7.306537e+00	0	0
3588594	2.191000e+00	-1.953330e+02	7.311387e+00	0	0
3590547	2.191000e+00	-1.748329e+02	8.950903e+00	0	0
3592500	2.191000e+00	-1.561943e+02	1.163899e+01	0	0
3594453	2.191000e+00	-1.340767e+02	1.383432e+01	0	0
3596406	2.191000e+00	-1.196899e+02	1.518576e+01	0	0
3598359	2.191000e+00	-1.121260e+02	1.539641e+01	0	0
3600313	2.191000e+00	-8.831440e+01	1.472160e+01	0	0
3602266	2.191000e+00	-7.930013e+01	1.320073e+01	0	0
3604219	2.191000e+00	-8.385475e+01	1.046415e+01	0	0
3606172	2.191000e+00	-8.501893e+01	8.741811e+00	0	0
3608125	2.191000e+00	-7.595565e+01	8.670400e+00	0	0
3610078	2.191000e+00	-6.838041e+01	8.342172e+00	0	0
3612031	2.191000e+00	-8.418991e+01	8.437385e+00	0	0
3613984	2.191000e+00	-7.637707e+01	6.753014e+00	0	0
3615938	2.191000e+00	-7.936044e+01	3.949306e+00	0	0
3617891	2.191000e+00	-6.498657e+01	3.700664e+00	0	0
3619844	2.191546e+00	-2.542805e+01	7.176032e+00	0	0
3621797	2.192000e+00	-3.604392e+01	8.738997e+00	0	0
3623750	2.192000e+00	-1.339691e+01	7.113087e+00	0	0
3625703	2.192000e+00	-2.646143e+00	7.021954e+00	0	0
3627656	2.192000e+00	-1.797999e+01	8.994189e+00	0	0
3629609	2.192000e+00	-4.127567e+01	1.077366e+01	0	0
3631563	2.192000e+00	-2.516351e+01	1.050505e+01	0	0
3633516	2.192000e+00	7.134917e+00	7.367281e+00	0	0
3635469	2.192000e+00	3.836971e+01	3.680107e+00	0	0
3637422	2.192000e+00	8.741675e+01	2.710244e+00	0	0
3639375	2.192000e+00	7.663002e+01	2.428697e+00	0	0
3641328	2.192000e+00	6.316936e+01	-2.314031e+00	0	0
3643281	2.192000e+00	9.773463e+01	-7.833848e+00	0	0
3645234	2.192000e+00	9.001424e+01	-9.473194e+00	0	0
3647188	2.192000e+00	9.020965e+01	-8.271041e+00	0	0
3649141	2.192000e+00	1.432856e+02	-4.300144e+00	0	0
3651094	2.192000e+00	1.758665e+02	-7.510275e-01	0	0
3653047	2.192000e+00	1.812568e+02	-1.006714e-01	0	0
3655000	2.192000e+00	1.826136e+02	4.841385e-01	0	0
3656953	2.192000e+00	2.043338e+02	4.730067e+00	0	0
3658906	2.192000e+00	2.041300e+02	9.439776e+00	0	0
3660859	2.192548e+00	1.892468e+02	1.000356e+01	0	0
3662813	2.193000e+00	2.024029e+02	7.232002e+00	0	0
3664766	2.193000e+00	2.011491e+02	3.025630e+00	0	0
3666719	2.193000e+00	1.954883e+02	4.558127e-01	0	0
3668672	2.193000e+00	2.206706e+02	3.233276e-02	0	0
3670625	2.193000e+00	2.306545e+02	-1.495128e-01	0	0
3672578	2.193000e+00	2.662068e+02	-2.600517e-01	0	0
3674531	2.193000e+00	2.995887e+02	-8.575314e-01	0	0
3676484	2.193000e+00	3.200218e+02	-2.626382e+00	0	0
3678438	2.193000e+00	3.352266e+02	-4.578794e+00	0	0
3680391	2.193000e+00	3.574188e+02	-6.084340e+00	0	0
3682344	2.193000e+00	3.690801e+02	-6.724967e+00	0	0
3684297	2.193000e+00	3.496532e+02	-5.636586e+00	0	0
3686250	2.193000e+00	3.436953e+02	-2.871615e+00	0	0
3688203	2.193000e+00	3.414497e+02	8.924717e-01	0	0
3690156	2.193000e+00	3.475605e+02	2.037114e+00	0	0
3692109	2.193000e+00	3.349825e+02	7.983817e-01	0	0
3694063	2.193000e+00	3.265206e+02	1.298246e+00	0	0
3696016	2.193000e+00	3.300732e+02	4.858984e+00	0	0
3697969	2.193000e+00	3.038994e+02	8.629989e+00	0	0
3699922	2.193551e+00	2.796707e+02	1.022596e+01	0	0
3701875	2.194000e+00	2.653112e+02	9.580465e+00	0	0
3703828	2.194000e+00	2.430473e+02	6.718853e+00	0	0
3705781	2.194000e+00	1.970804e+02	1.718032e+00	0	0
3707734	2.194000e+00	1.587432e+02	-2.879772e-01	0	0
3709688	2.194000e+00	1.372277e+02	1.633353e-01	0	0
3711641	2.194000e+00	1.042476e+02	-3.096687e+00	0	0
3713594	2.194000e+00	8.619528e+01	-9.145307e+00	0	0
3715547	2.194000e+00	7.595612e+01	-1.398037e+01	0	0
3717500	2.194000e+00	6.092157e+01	-1.571895e+01	0	0
3719453	2.194000e+00	5.163700e+01	-1.443976e+01	0	0
3721406	2.194000e+00	2.611507e+01	-1.044795e+01	0	0
3723359	2.194000e+00	-2.090776e+00	-3.831052e+00	0	0
3725313	2.194553e+00	-1.884947e+01	-5.780436e-01	0	0
3727266	2.195000e+00	-6.018711e+01	-1.302063e+00	0	0
3729219	2.195000e+00	-9.359012e+01	3.062724e+00	0	0
3731172	2.195000e+00	-1.074000e+02	9.991983e+00	0	0
3733125	2.195000e+00	-1.120214e+02	1.424761e+01	0	0
3735078	2.195000e+00	-1.265725e+02	1.661025e+01	0	0
3737031	2.195000e+00	-1.251289e+02	1.796728e+01	0	0
3738984	2.195000e+00	-1.300125e+02	1.879521e+01	0	0
3740938	2.195000e+00	-1.439985e+02	1.877398e+01	0	0
3742891	2.195000e+00	-1.675822e+02	1.720396e+01	0	0
3744844	2.195000e+00	-1.876711e+02	1.372976e+01	0	0
3746797	2.195000e+00	-1.915332e+02	8.355742e+00	0	0
3748750	2.195000e+00	-2.104403e+02	4.576691e+00	0	0
3750703	2.195000e+00	-2.113474e+02	3.601592e+00	0	0
3752656	2.195554e+00	-2.184936e+02	3.719846e+00	0	0
3754609	2.196000e+00	-2.065399e+02	5.162821e-01	0	0
3756563	2.196000e+00	-1.987143e+02	-4.704533e+00	0	0
3758516	2.196000e+00	-2.054713e+02	-8.445780e+00	0	0
3760469	2.196000e+00	-2.205217e+02	-1.116658e+01	0	0
3762422	2.196000e+00	-2.135273e+02	-1.241616e+01	0	0
3764375	2.196000e+00	-1.929033e+02	-1.185013e+01	0	0
3766328	2.196000e+00	-2.138995e+02	-9.179612e+00	0	0
3768281	2.196000e+00	-2.073620e+02	-4.944692e+00	0	0
3770234	2.196000e+00	-2.017332e+02	1.133407e-01	0	0
3772188	2.196556e+00	-1.878484e+02	5.951437e+00	0	0
3774141	2.197000e+00	-1.722573e+02	8.744018e+00	0	0
3776094	2.196444e+00	-1.676500e+02	8.399535e+00	0	0
3778047	2.196556e+00	-1.539080e+02	1.226624e+01	0	0
3780000	2.197000e+00	-1.719413e+02	2.084386e+01	0	0
3781953	2.197000e+00	-1.973356e+02	2.998058e+01	0	0
3783906	2.197000e+00	-2.225653e+02	3.722504e+01	0	0
3785859	2.197000e+00	-2.366884e+02	4.008960e+01	0	0
3787813	2.197000e+00	-2.212338e+02	3.812305e+01	0	0
3789766	2.197000e+00	-2.011208e+02	3.228161e+01	0	0
3791719	2.197000e+00	-1.839592e+02	2.268536e+01	0	0
3793672	2.197000e+00	-1.803182e+02	1.258802e+01	0	0
3795625	2.197000e+00	-1.780360e+02	8.309554e+00	0	0
3797578	2.197558e+00	-1.760186e+02	-2.469426e+00	0	0
3799531	2.198000e+00	-1.702555e+02	-1.986905e+01	0	0
3801484	2.198000e+00	-1.804919e+02	-3.563762e+01	0	0
3803438	2.198000e+00	-1.995172e+02	-4.661326e+01	0	0
3805391	2.198000e+00	-1.972665e+02	-4.464957e+01	0	0
3807344	2.198000e+00	-2.098232e+02	-2.651798e+01	0	0
3809297	2.198000e+00	-2.013959e+02	-1.268261e+01	0	0
3811250	2.198000e+00	-1.922467e+02	1.036614e+01	0	0
3813203	2.198000e+00	-1.831052e+02	4.750722e+01	0	0
3815156	2.198000e+00	-1.863144e+02	6.496620e+01	0	0
3817109	2.198000e+00	-1.778312e+02	3.788846e+01	0	0
3819063	2.198559e+00	-1.756199e+02	-8.926342e+00	0	0
3821016	2.199000e+00	-1.987929e+02	-6.290359e+01	0	0
3822969	2.199000e+00	-1.973051e+02	-1.023768e+02	0	0
3824922	2.199000e+00	-1.955853e+02	-9.847858e+01	0	0
3826875	2.199000e+00	-1.961440e+02	-6.134016e+01	0	0
3828828	2.199000e+00	-2.020433e+02	-2.413801e+01	0	0
3830781	2.199000e+00	-1.730243e+02	1.679053e+01	0	0
3832734	2.199000e+00	-1.768603e+02	5.644670e+01	0	0
3834688	2.199000e+00	-1.869049e+02	7.206557e+01	0	0
3836641	2.199000e+00	-1.689600e+02	5.750848e+01	0	0
3838594	2.199561e+00	-1.667203e+02	8.760091e+00	0	0
3840547	2.200000e+00	-1.611815e+02	-4.158335e+01	0	0
3842500	2.200000e+00	-1.636782e+02	-8.555967e+01	0	0
3844453	2.200000e+00	-1.605552e+02	-1.102280e+02	0	0
3846406	2.200000e+00	-1.768833e+02	-9.071321e+01	0	0
3848359	2.200000e+00	-1.758679e+02	-3.800737e+01	0	0
3850313	2.200000e+00	-1.557629e+02	1.856854e+01	0	0
3852266	2.200000e+00	-1.372210e+02	6.631075e+01	0	0
3854219	2.200000e+00	-1.488336e+02	8.708992e+01	0	0
3856172	2.200000e+00	-1.457747e+02	6.054919e+01	0	0
3858125	2.200562e+00	-1.319622e+02	4.993858e+00	0	0
3860078	2.201000e+00	-1.547532e+02	-6.852705e+01	0	0
3862031	2.201000e+00	-1.794793e+02	-1.216401e+02	0	0
3863984	2.201000e+00	-1.868829e+02	-1.187344e+02	0	0
3865938	2.201000e+00	-1.846535e+02	-8.076936e+01	0	0
3867891	2.201000e+00	-2.015164e+02	-3.659850e+01	0	0
3869844	2.201000e+00	-1.900039e+02	1.504813e+01	0	0
3871797	2.201000e+00	-1.715118e+02	6.655607e+01	0	0
3873750	2.201000e+00	-1.480122e+02	8.640830e+01	0	0
3875703	2.201000e+00	-1.239265e+02	5.789545e+01	0	0
3877656	2.201000e+00	-1.279094e+02	2.805502e+01	0	0
3879609	2.201563e+00	-1.176343e+02	4.742531e+00	0	0
3881563	2.202000e+00	-1.328063e+02	-1.487588e+01	0	0
3883516	2.202000e+00	-1.462916e+02	-1.635916e+01	0	0
3885469	2.202000e+00	-1.337764e+02	-1.357892e+01	0	0
3887422	2.202000e+00	-1.350486e+02	-4.079471e+00	0	0
3889375	2.202000e+00	-1.352876e+02	6.506260e+00	0	0
3891328	2.202000e+00	-1.368730e+02	4.718042e+00	0	0
3893281	2.202000e+00	-1.238773e+02	1.472913e+00	0	0
3895234	2.202000e+00	-1.313249e+02	4.831668e+00	0	0
3897188	2.202565e+00	-1.368520e+02	8.035388e+00	0	0
3899141	2.203000e+00	-1.348382e+02	8.522178e+00	0	0
3901094	2.203000e+00	-1.213337e+02	6.386156e+00	0	0
3903047	2.203000e+00	-1.425321e+02	5.985558e+00	0	0
3905000	2.203000e+00	-1.525011e+02	8.349678e+00	0	0
3906953	2.203000e+00	-1.513133e+02	8.624219e+00	0	0
3908906	2.203000e+00	-1.749169e+02	6.451526e+00	0	0
3910859	2.203000e+00	-1.446286e+02	3.453867e+00	0	0
3912813	2.203000e+00	-1.115913e+02	1.584734e+00	0	0
3914766	2.203566e+00	-1.104651e+02	2.000492e+00	0	0
3916719	2.204000e+00	-1.196905e+02	2.957785e+00	0	0
3918672	2.204000e+00	-1.134198e+02	3.237728e+00	0	0
3920625	2.204000e+00	-9.764538e+01	3.286833e+00	0	0
3922578	2.204000e+00	-1.079999e+02	3.381900e+00	0	0
3924531	2.204000e+00	-1.201270e+02	3.337820e+00	0	0
3926484	2.204000e+00	-1.175818e+02	3.773289e+00	0	0
3928438	2.204567e+00	-1.062283e+02	4.728174e+00	0	0
3930391	2.205000e+00	-8.520109e+01	4.961968e+00	0	0
3932344	2.205000e+00	-8.703082e+01	4.442954e+00	0	0
3934297	2.205000e+00	-1.166496e+02	4.504874e+00	0	0
3936250	2.205000e+00	-1.336185e+02	4.973746e+00	0	0
3938203	2.205000e+00	-1.187827e+02	5.348926e+00	0	0
3940156	2.205000e+00	-1.188533e+02	5.611533e+00	0	0
3942109	2.205000e+00	-1.089845e+02	5.745124e+00	0	0
3944063	2.205000e+00	-1.184920e+02	5.878485e+00	0	0
3946016	2.205568e+00	-1.185922e+02	5.998403e+00	0	0
3947969	2.206000e+00	-1.029479e+02	6.110051e+00	0	0
3949922	2.206000e+00	-1.131328e+02	6.208599e+00	0	0
3951875	2.206000e+00	-9.816194e+01	6.308670e+00	0	0
3953828	2.206000e+00	-9.518430e+01	6.336772e+00	0	0
3955781	2.206000e+00	-9.654321e+01	6.216054e+00	0	0
3957734	2.206000e+00	-7.634382e+01	5.842634e+00	0	0
3959688	2.206569e+00	-7.344855e+01	5.827018e+00	0	0
3961641	2.207000e+00	-6.688362e+01	5.951297e+00	0	0
3963594	2.207000e+00	-8.699306e+01	5.887318e+00	0	0
3965547	2.207000e+00	-9.068397e+01	5.848250e+00	0	0
3967500	2.207000e+00	-4.374230e+01	5.782276e+00	0	0
3969453	2.207000e+00	-5.871830e+00	5.704205e+00	0	0
3971406	2.207000e+00	6.050209e+00	5.611024e+00	0	0
3973359	2.207000e+00	9.604013e+00	5.504439e+00	0	0
3975313	2.207570e+00	1.316354e+01	5.385078e+00	0	0
3977266	2.208000e+00	4.346418e+01	5.253037e+00	0	0
3979219	2.208000e+00	5.412161e+01	5.112059e+00	0	0
3981172	2.208000e+00	4.312314e+01	4.948736e+00	0	0
3983125	2.208000e+00	6.233442e+01	4.786986e+00	0	0
3985078	2.208000e+00	4.418956e+01	4.689954e+00	0	0
3987031	2.208000e+00	4.607875e+01	4.621449e+00	0	0
3988984	2.208570e+00	6.118429e+01	4.543955e+00	0	0
3990938	2.209000e+00	8.611098e+01	4.466102e+00	0	0
3992891	2.209000e+00	1.072719e+02	4.385745e+00	0	0
3994844	2.209000e+00	1.141774e+02	4.303538e+00	0	0
3996797	2.209000e+00	1.099584e+02	4.219392e+00	0	0
3998750	2.209000e+00	1.023486e+02	4.133429e+00	0	0
4000703	2.209000e+00	9.995662e+01	4.045709e+00	0	0
4002656	2.209571e+00	9.160985e+01	3.956331e+00	0	0
4004609	2.210000e+00	1.035406e+02	3.865300e+00	0	0
4006563	2.210000e+00	1.289482e+02	3.774223e+00	0	0
4008516	2.210000e+00	1.566923e+02	3.702388e+00	0	0
4010469	2.210000e+00	1.421479e+02	3.640591e+00	0	0
4012422	2.210000e+00	1.365346e+02	3.574299e+00	0	0
4014375	2.210000e+00	1.404265e+02	3.507368e+00	0	0
4016328	2.210572e+00	1.536417e+02	3.437291e+00	0	0
4018281	2.211000e+00	1.554738e+02	3.370916e+00	0	0
4020234	2.211000e+00	1.309958e+02	3.289639e+00	0	0
4022188	2.211000e+00	1.278265e+02	3.300458e+00	0	0
4024141	2.211000e+00	1.237036e+02	3.432777e+00	0	0
4026094	2.211000e+00	1.264009e+02	3.587594e+00	0	0
4028047	2.211573e+00	1.101690e+02	3.743899e+00	0	0
4030000	2.211427e+00	8.020728e+01	3.906834e+00	0	0
4031953	2.211573e+00	5.655531e+01	4.071004e+00	0	0
4033906	2.212000e+00	4.598959e+01	4.250291e+00	0	0
4035859	2.212000e+00	2.669304e+01	4.340204e+00	0	0
4037813	2.212000e+00	5.159768e-01	4.367635e+00	0	0
4039766	2.212000e+00	-3.487071e-01	4.408901e+00	0	0
4041719	2.212000e+00	-1.265111e+01	4.443455e+00	0	0
4043672	2.212574e+00	-3.884173e+01	4.485524e+00	0	0
4045625	2.213000e+00	-4.522832e+01	4.458753e+00	0	0
4047578	2.213000e+00	-7.873657e+01	4.310884e+00	0	0
4049531	2.213000e+00	-9.085871e+01	4.133446e+00	0	0
4051484	2.213000e+00	-6.780570e+01	3.972254e+00	0	0
4053438	2.213000e+00	-8.909138e+01	3.817570e+00	0	0
4055391	2.213000e+00	-7.541183e+01	3.672671e+00	0	0
4057344	2.213575e+00	-6.145781e+01	3.537182e+00	0	0
4059297	2.214000e+00	-7.029118e+01	3.411671e+00	0	0
4061250	2.214000e+00	-5.891630e+01	3.296677e+00	0	0
4063203	2.214000e+00	-5.068927e+01	3.191636e+00	0	0
4065156	2.214000e+00	-5.371179e+01	3.094574e+00	0	0
4067109	2.214000e+00	-6.326970e+01	3.005589e+00	0	0
4069063	2.214576e+00	-6.758334e+01	2.923274e+00	0	0
4071016	2.215000e+00	-9.198141e+01	2.854844e+00	0	0
4072969	2.215000e+00	-1.605854e+02	2.774980e+00	0	0
4074922	2.215000e+00	-1.288166e+02	2.779551e+00	0	0
4076875	2.215000e+00	-7.408758e+01	2.417799e+00	0	0
4078828	2.215577e+00	-1.076815e+02	2.001686e+00	0	0
4080781	2.216000e+00	-1.045945e+02	2.035625e+00	0	0
4082734	2.216000e+00	-9.798294e+01	2.428518e+00	0	0
4084688	2.216000e+00	-9.955986e+01	2.591259e+00	0	0
4086641	2.216000e+00	-1.206474e+02	2.516773e+00	0	0
4088594	2.216000e+00	-1.148793e+02	2.496575e+00	0	0
4090547	2.216578e+00	-1.092889e+02	2.461637e+00	0	0
4092500	2.217000e+00	-9.578977e+01	2.430529e+00	0	0
4094453	2.217000e+00	-8.208690e+01	2.398360e+00	0	0
4096406	2.217000e+00	-9.882132e+01	2.366518e+00	0	0
4098359	2.217000e+00	-9.774066e+01	2.334700e+00	0	0
4100313	2.217000e+00	-1.098644e+02	2.303052e+00	0	0
4102266	2.217579e+00	-9.491064e+01	2.271626e+00	0	0
4104219	2.218000e+00	-9.555004e+01	2.240550e+00	0	0
4106172	2.218000e+00	-9.815382e+01	2.209585e+00	0	0
4108125	2.218000e+00	-9.947058e+01	2.179881e+00	0	0
4110078	2.218000e+00	-1.146682e+02	2.147412e+00	0	0
4112031	2.218579e+00	-1.082184e+02	2.127469e+00	0	0
4113984	2.219000e+00	-9.087870e+01	2.063255e+00	0	0
4115938	2.219000e+00	-8.151610e+01	2.221779e+00	0	0
4117891	2.219000e+00	-1.153673e+02	2.408195e+00	0	0
4119844	2.219000e+00	-1.739224e+02	2.812937e+00	0	0
4121797	2.219000e+00	-1.721958e+02	4.389530e+00	0	0
4123750	2.219580e+00	-1.132607e+02	5.479478e+00	0	0
4125703	2.220000e+00	-2.790343e+01	5.664097e+00	0	0
4127656	2.220000e+00	3.708726e+01	5.814080e+00	0	0
4129609	2.220000e+00	1.504639e+02	5.267431e+00	0	0
4131563	2.220000e+00	2.794753e+02	6.298928e+00	0	0
4133516	2.220000e+00	3.786539e+02	8.354946e+00	0	0
4135469	2.220581e+00	5.984720e+02	8.459703e+00	0	0
4137422	2.221000e+00	8.832152e+02	6.559264e+00	0	0
4139375	2.221000e+00	1.145012e+03	2.999994e+00	0	0
4141328	2.221000e+00	1.377562e+03	1.598024e+00	0	0
4143281	2.221000e+00	1.619502e+03	1.940817e+00	0	0
4145234	2.221000e+00	1.857397e+03	1.582563e+00	0	0
4147188	2.221582e+00	1.971900e+03	-1.333668e+00	0	0
4149141	2.222000e+00	1.974857e+03	-4.856147e+00	0	0
4151094	2.222000e+00	1.803621e+03	-6.137365e+00	0	0
4153047	2.222000e+00	1.402771e+03	-4.010677e+00	0	0
4155000	2.222000e+00	1.102097e+03	-2.255328e+00	0	0
4156953	2.222582e+00	8.938284e+02	-2.162201e+00	0	0
4158906	2.223000e+00	7.093684e+02	-1.627355e+00	0	0
4160859	2.223000e+00	5.600884e+02	-7.603695e-01	0	0
4162813	2.223000e+00	2.524037e+02	4.204292e-01	0	0
4164766	2.223000e+00	-2.911190e+01	1.776813e+00	0	0
4166719	2.223583e+00	-1.198164e+02	2.154398e+00	0	0
4168672	2.224000e+00	-1.670655e+02	2.039467e+00	0	0
4170625	2.224000e+00	-1.652157e+02	2.112270e+00	0	0
4172578	2.224000e+00	-1.513750e+02	2.149697e+00	0	0
4174531	2.224000e+00	-1.633391e+02	2.150298e+00	0	0
4176484	2.224000e+00	-1.367852e+02	2.417204e+00	0	0
4178438	2.224584e+00	-8.632017e+01	3.009520e+00	0	0
4180391	2.225000e+00	-6.325720e+01	3.399397e+00	0	0
4182344	2.225000e+00	-2.922042e+01	3.566769e+00	0	0
4184297	2.225000e+00	-6.829630e+00	3.742447e+00	0	0
4186250	2.225584e+00	-5.325230e+00	3.949248e+00	0	0
4188203	2.226000e+00	1.702989e+01	4.179261e+00	0	0
4190156	2.226000e+00	1.774968e+01	4.432762e+00	0	0
4192109	2.226000e+00	3.010438e+01	4.695559e+00	0	0
4194063	2.226000e+00	1.418705e+01	4.948701e+00	0	0
4196016	2.226585e+00	2.358855e+01	5.197048e+00	0	0
4197969	2.227000e+00	5.264914e+01	5.431577e+00	0	0
4199922	2.227000e+00	2.240211e+01	5.664822e+00	0	0
4201875	2.227000e+00	-2.517614e+01	5.741943e+00	0	0
4203828	2.227000e+00	-6.456171e+00	5.373126e+00	0	0
4205781	2.227000e+00	-2.473696e+01	4.615556e+00	0	0
4207734	2.227585e+00	-3.707746e+01	3.332608e+00	0	0
4209688	2.228000e+00	1.109032e+01	2.788108e+00	0	0
4211641	2.228000e+00	1.444179e+01	2.910458e+00	0	0
4213594	2.228000e+00	1.029604e+00	2.928885e+00	0	0
4215547	2.228586e+00	9.259219e+00	2.950249e+00	0	0
4217500	2.229000e+00	2.029870e+01	3.067809e+00	0	0
4219453	2.229000e+00	-1.193847e+01	2.631099e+00	0	0
4221406	2.229000e+00	-1.715784e+00	1.670086e+00	0	0
4223359	2.229000e+00	2.002321e+01	1.001617e+00	0	0
4225313	2.229000e+00	5.274846e+01	8.559205e-01	0	0
4227266	2.229587e+00	1.070940e+02	1.172475e+00	0	0
4229219	2.230000e+00	4.998740e+01	1.731133e+00	0	0
4231172	2.230000e+00	-4.650906e+01	2.374296e+00	0	0
4233125	2.230000e+00	-3.146264e+00	3.096606e+00	0	0
4235078	2.230587e+00	-6.735057e-01	3.375941e+00	0	0
4237031	2.231000e+00	-2.874890e+01	3.323242e+00	0	0
4238984	2.231000e+00	-6.525103e+00	3.551025e+00	0	0
4240938	2.231000e+00	-5.609744e+00	3.534188e+00	0	0
4242891	2.231000e+00	5.163283e+01	3.443858e+00	0	0
4244844	2.231588e+00	8.956848e+01	3.507619e+00	0	0
4246797	2.232000e+00	8.999497e+01	3.533758e+00	0	0
4248750	2.232000e+00	2.968327e+01	3.569636e+00	0	0
4250703	2.232000e+00	1.313977e+01	3.602715e+00	0	0
4252656	2.232000e+00	3.723625e+01	3.636906e+00	0	0
4254609	2.232589e+00	4.763538e+01	3.672004e+00	0	0
4256563	2.233000e+00	2.864067e+01	3.708844e+00	0	0
4258516	2.233000e+00	1.431185e+01	3.747491e+00	0	0
4260469	2.233000e+00	6.878478e+01	3.789131e+00	0	0
4262422	2.233000e+00	7.030250e+01	3.833110e+00	0	0
4264375	2.233590e+00	5.553955e+01	3.878529e+00	0	0
4266328	2.234000e+00	4.546806e+01	3.925468e+00	0	0
4268281	2.234000e+00	4.155102e+01	3.974093e+00	0	0
4270234	2.234000e+00	1.103233e+02	4.023361e+00	0	0
4272188	2.234591e+00	1.263120e+02	4.077000e+00	0	0
4274141	2.235000e+00	9.183824e+01	4.120888e+00	0	0
4276094	2.235000e+00	6.710261e+01	4.234935e+00	0	0
4278047	2.235000e+00	6.048883e+01	4.550403e+00	0	0
4280000	2.235591e+00	6.494558e+01	4.867964e+00	0	0
4281953	2.236000e+00	1.990609e+01	4.979896e+00	0	0
4283906	2.236000e+00	3.604601e+01	4.693835e+00	0	0
4285859	2.236000e+00	7.443631e+01	4.472530e+00	0	0
4287813	2.236000e+00	7.855939e+01	4.484855e+00	0	0
4289766	2.236592e+00	7.109292e+01	4.491732e+00	0	0
4291719	2.237000e+00	7.431262e+01	4.501296e+00	0	0
4293672	2.237000e+00	1.169070e+02	4.509958e+00	0	0
4295625	2.237000e+00	1.571618e+02	4.518680e+00	0	0
4297578	2.237592e+00	1.456650e+02	4.527202e+00	0	0
4299531	2.238000e+00	1.446476e+02	4.535593e+00	0	0
4301484	2.238000e+00	1.296039e+02	4.543832e+00	0	0
4303438	2.238000e+00	1.050279e+02	4.551929e+00	0	0
4305391	2.238000e+00	1.508377e+02	4.559871e+00	0	0
4307344	2.238593e+00	1.753713e+02	4.567664e+00	0	0
4309297	2.239000e+00	1.538147e+02	4.575305e+00	0	0
4311250	2.239000e+00	1.684549e+02	4.582793e+00	0	0
4313203	2.239000e+00	1.707790e+02	4.590129e+00	0	0
4315156	2.239594e+00	1.741989e+02	4.597308e+00	0	0
4317109	2.240000e+00	1.811876e+02	4.604339e+00	0	0
4319063	2.240000e+00	1.726962e+02	4.611192e+00	0	0
4321016	2.240000e+00	1.720401e+02	4.617977e+00	0	0
4322969	2.240000e+00	2.081799e+02	4.624256e+00	0	0
4324922	2.240595e+00	2.259566e+02	4.631674e+00	0	0
4326875	2.241000e+00	1.997878e+02	4.634082e+00	0	0
4328828	2.241000e+00	2.017374e+02	4.654429e+00	0	0
4330781	2.241000e+00	1.738059e+02	4.577791e+00	0	0
4332734	2.241595e+00	1.919413e+02	4.418764e+00	0	0
4334688	2.242000e+00	1.944810e+02	4.271970e+00	0	0
4336641	2.242000e+00	2.056784e+02	4.136178e+00	0	0
4338594	2.242000e+00	2.540039e+02	4.010124e+00	0	0
4340547	2.242596e+00	2.554426e+02	3.888539e+00	0	0
4342500	2.243000e+00	2.405672e+02	3.776807e+00	0	0
4344453	2.243000e+00	2.292781e+02	3.671353e+00	0	0
4346406	2.243000e+00	2.539267e+02	3.605948e+00	0	0
4348359	2.243000e+00	2.584514e+02	3.607130e+00	0	0
4350313	2.243597e+00	2.747592e+02	3.634353e+00	0	0
4352266	2.244000e+00	2.881469e+02	3.667726e+00	0	0
4354219	2.244000e+00	3.050448e+02	3.711385e+00	0	0
4356172	2.244000e+00	3.216882e+02	3.763846e+00	0	0
4358125	2.244597e+00	3.420885e+02	3.825087e+00	0	0
4360078	2.245000e+00	3.615036e+02	3.894836e+00	0	0
4362031	2.245000e+00	3.667519e+02	3.972365e+00	0	0
4363984	2.245000e+00	3.546025e+02	4.059023e+00	0	0
4365938	2.245000e+00	3.727334e+02	4.148346e+00	0	0
4367891	2.245598e+00	3.956703e+02	4.256368e+00	0	0
4369844	2.246000e+00	4.018054e+02	4.174408e+00	0	0
4371797	2.246000e+00	4.462005e+02	3.982753e+00	0	0
4373750	2.246598e+00	4.550137e+02	3.818375e+00	0	0
4375703	2.247000e+00	4.728736e+02	3.647426e+00	0	0
4377656	2.247000e+00	4.819261e+02	3.480870e+00	0	0
4379609	2.247000e+00	5.001988e+02	3.317242e+00	0	0
4381563	2.247000e+00	4.792667e+02	3.158311e+00	0	0
4383516	2.247599e+00	4.877774e+02	3.005221e+00	0	0
4385469	2.248000e+00	5.139205e+02	2.859023e+00	0	0
4387422	2.248000e+00	5.128164e+02	2.721104e+00	0	0
4389375	2.248600e+00	5.349744e+02	2.591690e+00	0	0
4391328	2.249000e+00	5.328186e+02	2.475400e+00	0	0
4393281	2.249000e+00	5.331226e+02	2.350186e+00	0	0
4395234	2.249000e+00	5.679803e+02	2.140494e+00	0	0
4397188	2.249000e+00	5.946010e+02	1.893193e+00	0	0
4399141	2.249601e+00	6.029706e+02	1.677320e+00	0	0
4401094	2.250000e+00	5.826771e+02	1.409729e+00	0	0
4403047	2.250000e+00	5.833143e+02	1.216741e+00	0	0
4405000	2.250601e+00	5.877171e+02	1.043134e+00	0	0
4406953	2.251000e+00	5.717079e+02	8.269022e-01	0	0
4408906	2.251000e+00	5.687302e+02	6.199763e-01	0	0
4410859	2.251000e+00	5.525456e+02	4.093485e-01	0	0
4412813	2.251602e+00	5.373114e+02	1.982777e-01	0	0
4414766	2.252000e+00	5.252961e+02	-1.393049e-02	0	0
4416719	2.252000e+00	5.202925e+02	-2.275556e-01	0	0
4418672	2.252000e+00	4.808470e+02	-4.414477e-01	0	0
4420625	2.252000e+00	4.342633e+02	-6.604815e-01	0	0
4422578	2.252602e+00	4.085940e+02	-8.667552e-01	0	0
4424531	2.253000e+00	3.863097e+02	-1.120692e+00	0	0
4426484	2.253000e+00	3.613578e+02	-9.669762e-01	0	0
4428438	2.253603e+00	3.452716e+02	-1.725640e-01	0	0
4430391	2.254000e+00	3.026945e+02	7.182664e-01	0	0
4432344	2.254000e+00	2.762997e+02	1.457172e+00	0	0
4434297	2.254000e+00	2.461781e+02	2.052335e+00	0	0
4436250	2.254603e+00	2.242273e+02	2.456149e+00	0	0
4438203	2.255000e+00	2.039074e+02	2.661018e+00	0	0
