time	gsr	ecg	emg_trapezius	emg_corrugator	emg_zygomaticus
313	2.014818e+00	-1.238064e+02	7.646139e-01	0	0
2266	2.014000e+00	-9.699522e+01	1.003624e+00	0	0
4219	2.014182e+00	-9.045111e+01	1.265414e+00	0	0
6172	2.014818e+00	-9.563814e+01	1.195363e+00	0	0
8125	2.014182e+00	-7.831832e+01	1.076646e+00	0	0
10078	2.015000e+00	-7.655449e+01	8.395762e-01	0	0
12031	2.015000e+00	-7.193304e+01	5.583853e-01	0	0
13984	2.015000e+00	-6.791333e+01	4.237033e-01	0	0
15938	2.015000e+00	-5.713653e+01	3.051833e-01	0	0
17891	2.015000e+00	-4.925431e+01	3.180287e-01	0	0
19844	2.015000e+00	-4.259297e+01	3.156770e-01	0	0
21797	2.015000e+00	-5.336298e+01	3.174046e-01	0	0
23750	2.015000e+00	-3.553309e+01	3.180464e-01	0	0
25703	2.014817e+00	-3.946903e+01	3.189854e-01	0	0
27656	2.014000e+00	-4.371642e+01	3.198560e-01	0	0
29609	2.014000e+00	-4.761257e+01	3.207984e-01	0	0
31563	2.014000e+00	-4.070518e+01	3.218193e-01	0	0
33516	2.014000e+00	-4.267480e+01	3.229119e-01	0	0
35469	2.014000e+00	-3.713617e+01	3.241116e-01	0	0
37422	2.014000e+00	-2.017427e+01	3.252822e-01	0	0
39375	2.014000e+00	-2.138703e+01	3.270869e-01	0	0
41328	2.014000e+00	-1.332125e+01	3.385012e-01	0	0
43281	2.014000e+00	-1.436438e+01	3.607775e-01	0	0
45234	2.014000e+00	-1.500863e+01	3.878807e-01	0	0
47188	2.014000e+00	-2.119397e+00	3.915566e-01	0	0
49141	2.014000e+00	7.872803e+00	2.696141e-01	0	0
51094	2.014000e+00	8.165005e+00	1.785582e-01	0	0
53047	2.014000e+00	4.863779e+00	2.028530e-01	0	0
55000	2.014000e+00	1.858545e+01	3.641034e-01	0	0
56953	2.014000e+00	8.322813e+00	5.306747e-01	0	0
58906	2.014000e+00	1.517988e+01	5.403056e-01	0	0
60859	2.014000e+00	1.379362e+01	5.680869e-01	0	0
62813	2.014000e+00	2.568142e+00	5.912906e-01	0	0
64766	2.014000e+00	2.629635e+01	6.158898e-01	0	0
66719	2.014000e+00	4.424288e+01	6.405759e-01	0	0
68672	2.014000e+00	6.461560e+01	6.645563e-01	0	0
70625	2.014000e+00	7.520471e+01	6.922383e-01	0	0
72578	2.014000e+00	6.710396e+01	7.033551e-01	0	0
74531	2.014000e+00	6.782782e+01	6.418326e-01	0	0
76484	2.014000e+00	7.506743e+01	6.099707e-01	0	0
78438	2.014000e+00	7.545592e+01	6.149078e-01	0	0
80391	2.014000e+00	1.039921e+02	6.239857e-01	0	0
82344	2.014000e+00	1.142304e+02	6.412186e-01	0	0
84297	2.014000e+00	1.329623e+02	6.660640e-01	0	0
86250	2.014000e+00	1.361482e+02	6.988948e-01	0	0
88203	2.014000e+00	1.595235e+02	7.377548e-01	0	0
90156	2.014000e+00	1.609707e+02	7.809460e-01	0	0
92109	2.014000e+00	1.659141e+02	8.283813e-01	0	0
94063	2.014000e+00	1.729598e+02	8.798208e-01	0	0
96016	2.014000e+00	1.729092e+02	9.350093e-01	0	0
97969	2.014000e+00	1.765256e+02	9.936902e-01	0	0
99922	2.014000e+00	1.764685e+02	1.055836e+00	0	0
101875	2.014000e+00	1.866612e+02	1.120480e+00	0	0
103828	2.014000e+00	1.939496e+02	1.190155e+00	0	0
105781	2.014000e+00	2.073957e+02	1.254025e+00	0	0
107734	2.014000e+00	2.412182e+02	1.271205e+00	0	0
109688	2.014000e+00	2.647121e+02	1.277249e+00	0	0
111641	2.014000e+00	2.716511e+02	1.280790e+00	0	0
113594	2.014000e+00	2.832212e+02	1.281644e+00	0	0
115547	2.014000e+00	2.814634e+02	1.279653e+00	0	0
117500	2.014000e+00	2.824636e+02	1.275802e+00	0	0
119453	2.014000e+00	2.926328e+02	1.279099e+00	0	0
121406	2.014000e+00	3.169762e+02	1.292102e+00	0	0
123359	2.014000e+00	3.333286e+02	1.302300e+00	0	0
125313	2.014000e+00	3.613443e+02	1.311230e+00	0	0
127266	2.014000e+00	3.799163e+02	1.318442e+00	0	0
129219	2.014000e+00	3.959858e+02	1.324326e+00	0	0
131172	2.014000e+00	4.027344e+02	1.327939e+00	0	0
133125	2.014000e+00	3.988253e+02	1.332827e+00	0	0
135078	2.014000e+00	4.146437e+02	1.325904e+00	0	0
137031	2.014000e+00	4.332890e+02	1.357396e+00	0	0
138984	2.014000e+00	4.231519e+02	1.554052e+00	0	0
140938	2.014000e+00	4.438436e+02	1.639933e+00	0	0
142891	2.014000e+00	4.502523e+02	1.650191e+00	0	0
144844	2.014000e+00	4.670484e+02	1.604387e+00	0	0
146797	2.014000e+00	4.865776e+02	1.502663e+00	0	0
148750	2.014000e+00	5.086871e+02	1.363714e+00	0	0
150703	2.014000e+00	5.250829e+02	1.287746e+00	0	0
152656	2.014000e+00	5.167467e+02	1.283037e+00	0	0
154609	2.014000e+00	5.182365e+02	1.267948e+00	0	0
156563	2.014000e+00	5.022849e+02	1.260755e+00	0	0
158516	2.014000e+00	5.104478e+02	1.225202e+00	0	0
160469	2.014000e+00	5.027185e+02	1.292179e+00	0	0
162422	2.014000e+00	5.021061e+02	1.924533e+00	0	0
164375	2.014000e+00	4.915095e+02	1.985273e+00	0	0
166328	2.014000e+00	4.845051e+02	1.090356e+00	0	0
168281	2.014000e+00	4.732613e+02	1.181495e+00	0	0
170234	2.014000e+00	4.458676e+02	1.103054e+00	0	0
172188	2.014000e+00	4.135042e+02	1.201088e+00	0	0
174141	2.014000e+00	3.995074e+02	7.158986e-01	0	0
176094	2.014000e+00	3.652635e+02	-1.881507e+00	0	0
178047	2.014000e+00	3.304288e+02	-2.544727e+00	0	0
180000	2.014000e+00	3.160513e+02	-1.451944e+00	0	0
181953	2.014000e+00	2.846662e+02	8.249382e-01	0	0
183906	2.014000e+00	2.548710e+02	1.004474e+00	0	0
185859	2.014000e+00	2.338407e+02	9.663806e-01	0	0
187813	2.014000e+00	2.096196e+02	1.215999e+00	0	0
189766	2.014000e+00	1.746777e+02	3.383994e+00	0	0
191719	2.014000e+00	1.518712e+02	5.864265e+00	0	0
193672	2.014000e+00	1.091737e+02	6.434609e+00	0	0
195625	2.014000e+00	8.960414e+01	5.478943e+00	0	0
197578	2.014000e+00	6.918312e+01	3.157383e+00	0	0
199531	2.014000e+00	5.106963e+01	1.020355e+00	0	0
201484	2.014000e+00	2.728841e+01	1.258809e+00	0	0
203438	2.014000e+00	1.735263e+01	1.252124e+00	0	0
205391	2.014000e+00	4.296866e+00	1.146098e+00	0	0
207344	2.014000e+00	-3.581914e+00	-5.978140e-01	0	0
209297	2.014000e+00	-4.788790e+00	-3.404728e+00	0	0
211250	2.014000e+00	-2.498299e+01	-4.452824e+00	0	0
213203	2.014000e+00	-3.823725e+01	-3.779956e+00	0	0
215156	2.014000e+00	-3.940238e+01	-1.711636e+00	0	0
217109	2.014000e+00	-5.932809e+01	6.558847e-01	0	0
219063	2.014000e+00	-7.708114e+01	1.428522e+00	0	0
221016	2.014000e+00	-8.516110e+01	1.391718e+00	0	0
222969	2.013808e+00	-7.708240e+01	1.435208e+00	0	0
224922	2.013192e+00	-7.853763e+01	1.413367e+00	0	0
226875	2.013808e+00	-7.615006e+01	1.581687e+00	0	0
228828	2.013000e+00	-5.876969e+01	3.058783e+00	0	0
230781	2.013192e+00	-7.588711e+01	5.089804e+00	0	0
232734	2.014000e+00	-9.108749e+01	6.235064e+00	0	0
234688	2.014000e+00	-7.926520e+01	6.573474e+00	0	0
236641	2.014000e+00	-8.707808e+01	6.215909e+00	0	0
238594	2.014000e+00	-1.111914e+02	5.304913e+00	0	0
240547	2.014000e+00	-1.032473e+02	3.913626e+00	0	0
242500	2.014000e+00	-9.451508e+01	2.320934e+00	0	0
244453	2.013807e+00	-8.471367e+01	1.591716e+00	0	0
246406	2.013193e+00	-7.993461e+01	1.675102e+00	0	0
248359	2.013807e+00	-6.365047e+01	1.674539e+00	0	0
250313	2.013193e+00	-7.293625e+01	1.662776e+00	0	0
252266	2.013807e+00	-8.675241e+01	1.725145e+00	0	0
254219	2.013193e+00	-1.033136e+02	1.239671e+00	0	0
256172	2.013807e+00	-1.101475e+02	-8.954765e-01	0	0
258125	2.013193e+00	-1.246339e+02	-1.954308e+00	0	0
260078	2.013807e+00	-1.217708e+02	-2.202333e+00	0	0
262031	2.013000e+00	-1.299540e+02	-1.503127e+00	0	0
263984	2.013000e+00	-1.203057e+02	1.968536e-01	0	0
265938	2.013000e+00	-1.097854e+02	1.818789e+00	0	0
267891	2.013000e+00	-9.144883e+01	1.651232e+00	0	0
269844	2.013000e+00	-7.197518e+01	1.667188e+00	0	0
271797	2.013000e+00	-8.006753e+01	1.594962e+00	0	0
273750	2.013000e+00	-8.519273e+01	1.527321e+00	0	0
275703	2.013000e+00	-1.006632e+02	1.452493e+00	0	0
277656	2.013000e+00	-9.975949e+01	1.377984e+00	0	0
279609	2.013000e+00	-1.127299e+02	1.310329e+00	0	0
281563	2.013000e+00	-1.084281e+02	1.218793e+00	0	0
283516	2.013000e+00	-9.913543e+01	1.225264e+00	0	0
285469	2.013000e+00	-9.705271e+01	2.037608e+00	0	0
287422	2.013000e+00	-8.086239e+01	3.351293e+00	0	0
289375	2.013000e+00	-7.785856e+01	4.057663e+00	0	0
291328	2.013000e+00	-7.329160e+01	4.259869e+00	0	0
293281	2.013000e+00	-9.332070e+01	3.791238e+00	0	0
295234	2.013000e+00	-1.122798e+02	2.210621e+00	0	0
297188	2.013000e+00	-1.029850e+02	5.556369e-01	0	0
299141	2.013000e+00	-1.258848e+02	6.671378e-01	0	0
301094	2.013000e+00	-1.233902e+02	5.259125e-01	0	0
303047	2.013000e+00	-1.258977e+02	6.023868e-01	0	0
305000	2.013000e+00	-1.142814e+02	-3.768969e-02	0	0
306953	2.013000e+00	-9.958421e+01	-3.047626e+00	0	0
308906	2.013000e+00	-8.381715e+01	-3.851958e+00	0	0
310859	2.013000e+00	-9.516088e+01	-2.955426e+00	0	0
312813	2.013000e+00	-7.954584e+01	-7.238538e-01	0	0
314766	2.013000e+00	-6.500237e+01	2.130918e-01	0	0
316719	2.013000e+00	-7.909894e+01	1.136262e-01	0	0
318672	2.013000e+00	-6.986428e+01	-5.439689e-02	0	0
320625	2.013000e+00	-9.911701e+01	4.309520e-01	0	0
322578	2.013000e+00	-1.011193e+02	3.680748e+00	0	0
324531	2.013000e+00	-9.586345e+01	5.155019e+00	0	0
326484	2.013000e+00	-9.758544e+01	4.538114e+00	0	0
328438	2.013000e+00	-7.684777e+01	1.812452e+00	0	0
330391	2.013000e+00	-7.544248e+01	-3.959215e-01	0	0
332344	2.013000e+00	-7.563169e+01	-2.468826e-01	0	0
334297	2.013000e+00	-6.740724e+01	-2.396261e-01	0	0
336250	2.013000e+00	-7.799173e+01	-8.771049e-01	0	0
338203	2.013000e+00	-7.726812e+01	-3.675812e+00	0	0
340156	2.013000e+00	-7.691974e+01	-4.333129e+00	0	0
342109	2.013000e+00	-7.261549e+01	-2.917534e+00	0	0
344063	2.013000e+00	-7.626269e+01	-2.507988e-02	0	0
346016	2.013000e+00	-6.045972e+01	5.581594e-01	0	0
347969	2.013000e+00	-5.297205e+01	8.713521e-01	0	0
349922	2.013000e+00	-5.668336e+01	1.090226e+00	0	0
351875	2.013000e+00	-5.946441e+01	1.043368e+00	0	0
353828	2.013000e+00	-6.497315e+01	1.203898e+00	0	0
355781	2.013000e+00	-7.115562e+01	1.501334e+00	0	0
357734	2.013000e+00	-9.125250e+01	9.464240e-01	0	0
359688	2.013000e+00	-9.046657e+01	6.392918e-01	0	0
361641	2.013000e+00	-9.656721e+01	1.317684e+00	0	0
363594	2.013000e+00	-7.646123e+01	3.026304e+00	0	0
365547	2.013000e+00	-7.299486e+01	4.188623e+00	0	0
367500	2.013000e+00	-6.765901e+01	4.586870e+00	0	0
369453	2.013000e+00	-6.210278e+01	4.700904e+00	0	0
371406	2.013000e+00	-5.781494e+01	4.429227e+00	0	0
373359	2.013000e+00	-6.133672e+01	3.787190e+00	0	0
375313	2.013000e+00	-7.834836e+01	2.849809e+00	0	0
377266	2.013000e+00	-8.146362e+01	1.704215e+00	0	0
379219	2.013000e+00	-8.978891e+01	8.006267e-01	0	0
381172	2.013000e+00	-1.044441e+02	1.108999e+00	0	0
383125	2.013000e+00	-9.992316e+01	2.454719e+00	0	0
385078	2.013000e+00	-9.547958e+01	3.656839e+00	0	0
387031	2.013000e+00	-7.442341e+01	2.813800e+00	0	0
388984	2.013000e+00	-5.591555e+01	-9.749321e-01	0	0
390938	2.013000e+00	-5.090177e+01	-4.170844e+00	0	0
392891	2.013000e+00	-5.482703e+01	-4.267924e+00	0	0
394844	2.013000e+00	-7.081476e+01	-3.770253e+00	0	0
396797	2.013000e+00	-6.372494e+01	-3.451672e+00	0	0
398750	2.013000e+00	-7.203960e+01	-3.297366e+00	0	0
400703	2.013000e+00	-8.699322e+01	-3.468579e+00	0	0
402656	2.013000e+00	-8.172929e+01	-3.739358e+00	0	0
404609	2.013000e+00	-7.102667e+01	2.231447e-01	0	0
406563	2.013000e+00	-7.496789e+01	6.826522e+00	0	0
408516	2.013000e+00	-5.997632e+01	1.218935e+00	0	0
410469	2.013000e+00	-6.299393e+01	-6.166228e+00	0	0
412422	2.013000e+00	-5.895191e+01	-1.056874e+01	0	0
414375	2.013000e+00	-7.507578e+01	-8.769453e+00	0	0
416328	2.013000e+00	-8.560746e+01	3.514225e+00	0	0
418281	2.013000e+00	-9.658185e+01	2.236321e+01	0	0
420234	2.013000e+00	-1.093737e+02	3.826906e+01	0	0
422188	2.013000e+00	-1.083281e+02	5.848319e+01	0	0
424141	2.013000e+00	-9.714558e+01	8.054263e+01	0	0
426094	2.013000e+00	-7.659675e+01	6.480488e+01	0	0
428047	2.013000e+00	-7.061674e+01	5.520917e+00	0	0
430000	2.013000e+00	-6.703956e+01	-6.043811e+01	0	0
431953	2.013000e+00	-7.681038e+01	-1.291852e+02	0	0
433906	2.013000e+00	-8.436871e+01	-1.496002e+02	0	0
435859	2.013000e+00	-6.482403e+01	-1.158153e+02	0	0
437813	2.013000e+00	-8.925309e+01	-6.069129e+01	0	0
439766	2.013000e+00	-1.050344e+02	-1.247392e+01	0	0
441719	2.013000e+00	-8.646798e+01	3.997647e+01	0	0
443672	2.013000e+00	-8.602916e+01	6.085614e+01	0	0
445625	2.013000e+00	-8.832509e+01	4.497659e+01	0	0
447578	2.013000e+00	-8.081037e+01	2.177821e+01	0	0
449531	2.013000e+00	-6.508163e+01	1.472393e+01	0	0
451484	2.013000e+00	-5.330339e+01	-2.403805e+00	0	0
453438	2.013000e+00	-6.701671e+01	-6.631012e+00	0	0
455391	2.013000e+00	-7.832297e+01	-4.461568e+00	0	0
457344	2.013000e+00	-7.466192e+01	-2.858857e+00	0	0
459297	2.013000e+00	-9.594368e+01	-1.977750e+00	0	0
461250	2.013000e+00	-9.763032e+01	-1.353230e+00	0	0
463203	2.013000e+00	-9.053565e+01	-1.173272e+00	0	0
465156	2.013000e+00	-9.101108e+01	2.972407e-01	0	0
467109	2.013000e+00	-8.006628e+01	5.789733e+00	0	0
469063	2.013000e+00	-5.993625e+01	8.438301e+00	0	0
471016	2.013000e+00	-5.885469e+01	7.041847e+00	0	0
472969	2.012797e+00	-6.707221e+01	3.796496e+00	0	0
474922	2.012203e+00	-8.116119e+01	1.242621e+00	0	0
476875	2.013000e+00	-8.291764e+01	-5.842201e-01	0	0
478828	2.013000e+00	-9.865468e+01	-6.986885e-01	0	0
480781	2.012797e+00	-9.428221e+01	-2.770854e-01	0	0
482734	2.012000e+00	-8.769831e+01	-1.426676e-01	0	0
484688	2.012000e+00	-9.171396e+01	1.396552e+00	0	0
486641	2.012000e+00	-8.403510e+01	3.945091e+00	0	0
488594	2.012000e+00	-6.484055e+01	5.290340e+00	0	0
490547	2.012000e+00	-6.586358e+01	3.635397e+00	0	0
492500	2.012204e+00	-7.061467e+01	2.526011e+00	0	0
494453	2.013000e+00	-8.542326e+01	1.518821e+00	0	0
496406	2.012796e+00	-8.865866e+01	7.685141e-01	0	0
498359	2.012000e+00	-8.667745e+01	2.517854e-01	0	0
500313	2.012000e+00	-1.010334e+02	1.789591e-01	0	0
502266	2.012000e+00	-9.432163e+01	7.887452e-01	0	0
504219	2.012000e+00	-8.988712e+01	1.452513e+00	0	0
506172	2.012000e+00	-7.754442e+01	2.048345e+00	0	0
508125	2.012000e+00	-6.449874e+01	2.717425e+00	0	0
510078	2.012000e+00	-5.082688e+01	3.492598e+00	0	0
512031	2.012000e+00	-5.129507e+01	3.629039e+00	0	0
513984	2.012000e+00	-5.786157e+01	4.115749e+00	0	0
515938	2.012000e+00	-6.603043e+01	4.414512e+00	0	0
517891	2.012000e+00	-7.143286e+01	4.522851e+00	0	0
519844	2.012000e+00	-9.148076e+01	4.445795e+00	0	0
521797	2.012000e+00	-1.068507e+02	4.128475e+00	0	0
523750	2.012000e+00	-1.026215e+02	3.859482e+00	0	0
525703	2.012000e+00	-1.049729e+02	3.604532e+00	0	0
527656	2.012000e+00	-8.594438e+01	3.373566e+00	0	0
529609	2.012000e+00	-6.126425e+01	3.174948e+00	0	0
531563	2.012000e+00	-7.391002e+01	3.139941e+00	0	0
533516	2.012000e+00	-9.174861e+01	3.335593e+00	0	0
535469	2.012000e+00	-7.377622e+01	3.559297e+00	0	0
537422	2.012000e+00	-5.749383e+01	3.786661e+00	0	0
539375	2.012000e+00	-8.014683e+01	3.844925e+00	0	0
541328	2.012000e+00	-9.329014e+01	3.880568e+00	0	0
543281	2.012000e+00	-8.010434e+01	3.923845e+00	0	0
545234	2.012000e+00	-7.654685e+01	3.931119e+00	0	0
547188	2.012000e+00	-6.312327e+01	3.741140e+00	0	0
549141	2.012000e+00	-5.731699e+01	3.485496e+00	0	0
551094	2.012000e+00	-6.294017e+01	3.253729e+00	0	0
553047	2.012000e+00	-6.912101e+01	3.041918e+00	0	0
555000	2.012000e+00	-7.973971e+01	2.856005e+00	0	0
556953	2.012000e+00	-8.551593e+01	2.692526e+00	0	0
558906	2.012000e+00	-9.917681e+01	2.565754e+00	0	0
560859	2.012000e+00	-9.790068e+01	2.524984e+00	0	0
562813	2.012000e+00	-9.755866e+01	2.497833e+00	0	0
564766	2.012000e+00	-9.373178e+01	2.459813e+00	0	0
566719	2.012000e+00	-5.947492e+01	2.412883e+00	0	0
568672	2.012000e+00	-4.640095e+01	2.356812e+00	0	0
570625	2.012000e+00	-3.313050e+01	2.292064e+00	0	0
572578	2.012000e+00	-1.747179e+01	2.218519e+00	0	0
574531	2.012000e+00	1.295992e+01	2.137694e+00	0	0
576484	2.012000e+00	3.351556e+01	2.045216e+00	0	0
578438	2.012000e+00	4.493523e+01	1.972002e+00	0	0
580391	2.012000e+00	6.109765e+01	1.983029e+00	0	0
582344	2.012000e+00	6.092900e+01	1.995402e+00	0	0
584297	2.012000e+00	5.694218e+01	2.020660e+00	0	0
586250	2.012000e+00	5.816182e+01	2.055637e+00	0	0
588203	2.012000e+00	9.182028e+01	2.101104e+00	0	0
590156	2.012000e+00	1.000218e+02	2.156788e+00	0	0
592109	2.012000e+00	9.867868e+01	2.222659e+00	0	0
594063	2.012000e+00	1.058214e+02	2.298793e+00	0	0
596016	2.012000e+00	1.145043e+02	2.384652e+00	0	0
597969	2.012000e+00	7.934111e+01	2.481721e+00	0	0
599922	2.012000e+00	7.256382e+01	2.584463e+00	0	0
601875	2.012000e+00	8.853777e+01	2.742487e+00	0	0
603828	2.012000e+00	1.012041e+02	3.052761e+00	0	0
605781	2.012000e+00	1.111329e+02	3.298792e+00	0	0
607734	2.012000e+00	1.166999e+02	3.341188e+00	0	0
609688	2.012000e+00	1.283822e+02	3.329095e+00	0	0
611641	2.012000e+00	1.609181e+02	3.309837e+00	0	0
613594	2.012000e+00	1.635030e+02	3.280851e+00	0	0
615547	2.012000e+00	1.397725e+02	3.244230e+00	0	0
617500	2.012000e+00	1.339838e+02	3.197947e+00	0	0
619453	2.012000e+00	1.039555e+02	3.151798e+00	0	0
621406	2.012000e+00	1.098434e+02	3.071521e+00	0	0
623359	2.012000e+00	1.273671e+02	2.924290e+00	0	0
625313	2.012000e+00	1.237847e+02	2.904362e+00	0	0
627266	2.012000e+00	1.232823e+02	2.897055e+00	0	0
629219	2.012000e+00	1.215298e+02	2.919931e+00	0	0
631172	2.012000e+00	1.093581e+02	2.967135e+00	0	0
633125	2.012000e+00	9.089924e+01	3.039035e+00	0	0
635078	2.012000e+00	8.222474e+01	3.134348e+00	0	0
637031	2.012000e+00	6.705432e+01	3.252172e+00	0	0
638984	2.012000e+00	3.123548e+01	3.391729e+00	0	0
640938	2.012000e+00	2.203360e+01	3.551444e+00	0	0
642891	2.012000e+00	1.089497e+01	3.732921e+00	0	0
644844	2.012000e+00	2.700733e+00	3.924007e+00	0	0
646797	2.012000e+00	-1.493404e+01	3.951992e+00	0	0
648750	2.012000e+00	-3.720894e+01	3.610123e+00	0	0
650703	2.012000e+00	-3.941558e+01	3.077734e+00	0	0
652656	2.012000e+00	-5.438884e+01	2.519080e+00	0	0
654609	2.012000e+00	-8.047870e+01	1.917897e+00	0	0
656563	2.012000e+00	-8.899200e+01	1.288012e+00	0	0
658516	2.012000e+00	-9.330216e+01	6.060914e-01	0	0
660469	2.012000e+00	-1.160618e+02	6.997655e-02	0	0
662422	2.012000e+00	-1.269683e+02	-2.869962e-02	0	0
664375	2.012000e+00	-1.179098e+02	-3.735857e-01	0	0
666328	2.012000e+00	-9.908352e+01	-8.620307e-01	0	0
668281	2.012000e+00	-9.080795e+01	-1.272473e+00	0	0
670234	2.012000e+00	-9.232071e+01	-1.585068e+00	0	0
672188	2.012000e+00	-9.305136e+01	-1.743168e+00	0	0
674141	2.012000e+00	-9.402703e+01	-1.104127e+00	0	0
676094	2.012000e+00	-8.088776e+01	-3.768086e-01	0	0
678047	2.012000e+00	-1.003828e+02	5.316599e-01	0	0
680000	2.012000e+00	-1.073737e+02	1.560389e+00	0	0
681953	2.012000e+00	-1.101668e+02	2.778413e+00	0	0
683906	2.011787e+00	-1.250599e+02	3.876519e+00	0	0
685859	2.011000e+00	-1.138238e+02	3.722058e+00	0	0
687813	2.011213e+00	-1.044930e+02	2.968888e+00	0	0
689766	2.011787e+00	-9.548312e+01	2.101518e+00	0	0
691719	2.011213e+00	-1.018910e+02	3.190059e-01	0	0
693672	2.011787e+00	-1.202076e+02	-2.252717e+00	0	0
695625	2.011213e+00	-1.227925e+02	-3.067093e+00	0	0
697578	2.011786e+00	-1.334173e+02	-2.143145e+00	0	0
699531	2.011214e+00	-1.506134e+02	-1.183974e+00	0	0
701484	2.012000e+00	-1.463971e+02	-7.714052e-01	0	0
703438	2.012000e+00	-1.478864e+02	-9.147921e-01	0	0
705391	2.011786e+00	-1.366770e+02	-1.580275e+00	0	0
707344	2.011000e+00	-1.227361e+02	-2.543767e+00	0	0
709297	2.011000e+00	-1.131611e+02	-3.109423e+00	0	0
711250	2.011000e+00	-1.027728e+02	-9.983199e-01	0	0
713203	2.011000e+00	-1.068431e+02	4.002685e+00	0	0
715156	2.011000e+00	-9.753528e+01	8.831728e+00	0	0
717109	2.011000e+00	-1.172356e+02	1.062340e+01	0	0
719063	2.011000e+00	-1.323269e+02	7.070679e+00	0	0
721016	2.011000e+00	-1.262820e+02	-3.844063e-01	0	0
722969	2.011215e+00	-1.265819e+02	-9.934610e-01	0	0
724922	2.011785e+00	-1.323096e+02	-2.304004e+00	0	0
726875	2.011000e+00	-1.508712e+02	-3.929956e+00	0	0
728828	2.011000e+00	-1.698151e+02	-6.177873e+00	0	0
730781	2.011000e+00	-1.774712e+02	-8.950124e+00	0	0
732734	2.011000e+00	-1.757625e+02	-1.112922e+01	0	0
734688	2.011000e+00	-1.531745e+02	-6.617427e+00	0	0
736641	2.011000e+00	-1.030639e+02	8.712601e+00	0	0
738594	2.011000e+00	-2.245515e+01	2.607591e+01	0	0
740547	2.011000e+00	6.258171e+01	3.732421e+01	0	0
742500	2.011000e+00	1.552742e+02	6.864214e+01	0	0
744453	2.011000e+00	2.816802e+02	9.289644e+01	0	0
746406	2.011000e+00	4.885475e+02	7.696898e+01	0	0
748359	2.011000e+00	7.887947e+02	9.320492e+00	0	0
750313	2.011000e+00	1.036493e+03	-6.115160e+01	0	0
752266	2.011000e+00	1.291909e+03	-1.332400e+02	0	0
754219	2.011000e+00	1.553976e+03	-1.544762e+02	0	0
756172	2.011000e+00	1.784400e+03	-1.180195e+02	0	0
758125	2.011000e+00	1.945627e+03	-6.011152e+01	0	0
760078	2.011000e+00	1.912698e+03	-8.133750e+00	0	0
762031	2.011000e+00	1.775895e+03	4.684939e+01	0	0
763984	2.011000e+00	1.466849e+03	6.658032e+01	0	0
765938	2.011000e+00	1.156418e+03	5.474084e+01	0	0
767891	2.011000e+00	9.552713e+02	2.609374e+01	0	0
769844	2.011000e+00	7.591596e+02	1.800434e+01	0	0
771797	2.011000e+00	5.607317e+02	3.075123e+00	0	0
773750	2.011000e+00	1.920704e+02	3.571276e+00	0	0
775703	2.011000e+00	-1.103161e+02	-3.827573e+00	0	0
777656	2.011000e+00	-2.182537e+02	-7.058210e+00	0	0
779609	2.011000e+00	-2.587881e+02	-5.397710e+00	0	0
781563	2.011000e+00	-2.633212e+02	-3.930523e+00	0	0
783516	2.011000e+00	-2.097973e+02	-2.434185e+00	0	0
785469	2.011000e+00	-1.807850e+02	-1.061873e+00	0	0
787422	2.011000e+00	-1.426324e+02	8.774998e-01	0	0
789375	2.011000e+00	-8.089613e+01	2.769030e+00	0	0
791328	2.011000e+00	-6.182783e+01	2.557143e+00	0	0
793281	2.011000e+00	-2.975237e+01	2.335633e+00	0	0
795234	2.011000e+00	-1.806706e+01	1.882877e+00	0	0
797188	2.011000e+00	-2.983849e+01	1.121343e+00	0	0
799141	2.011000e+00	-3.655497e+01	9.407627e-01	0	0
801094	2.011000e+00	-4.926831e+01	1.832964e+00	0	0
803047	2.011000e+00	-3.279443e+01	2.408042e+00	0	0
805000	2.011000e+00	-3.942417e+01	2.422989e+00	0	0
806953	2.011000e+00	-3.601111e+01	2.254838e+00	0	0
808906	2.011000e+00	-1.730024e+01	1.682453e+00	0	0
810859	2.011000e+00	-2.965108e+01	1.058395e+00	0	0
812813	2.011000e+00	-3.724333e+01	5.111610e-01	0	0
814766	2.011000e+00	-3.904350e+01	6.076153e-02	0	0
816719	2.011000e+00	-4.390674e+01	-2.928709e-01	0	0
818672	2.011000e+00	-5.960751e+01	-4.717644e-01	0	0
820625	2.011000e+00	-5.435366e+01	-3.384108e-01	0	0
822578	2.011000e+00	-5.356345e+01	-2.426072e-01	0	0
824531	2.011000e+00	-4.880651e+01	-1.361136e-01	0	0
826484	2.011000e+00	-4.614711e+01	-3.226769e-02	0	0
828438	2.011000e+00	-3.466429e+01	7.214742e-02	0	0
830391	2.011000e+00	-3.050197e+01	1.757663e-01	0	0
832344	2.011000e+00	-1.868780e+01	2.785693e-01	0	0
834297	2.011000e+00	-3.961322e+01	3.801572e-01	0	0
836250	2.011000e+00	-4.840183e+01	4.801926e-01	0	0
838203	2.011000e+00	-6.263646e+01	5.783119e-01	0	0
840156	2.011000e+00	-6.107371e+01	6.741522e-01	0	0
842109	2.011000e+00	-5.291811e+01	7.673717e-01	0	0
844063	2.011000e+00	-5.004909e+01	8.577441e-01	0	0
846016	2.011000e+00	-2.298797e+01	9.451036e-01	0	0
847969	2.011000e+00	1.609348e+00	1.030049e+00	0	0
849922	2.011000e+00	5.240811e+00	1.112989e+00	0	0
851875	2.011000e+00	-1.765250e+00	1.193978e+00	0	0
853828	2.011000e+00	-2.228991e+01	1.272470e+00	0	0
855781	2.011000e+00	-1.289785e+01	1.350396e+00	0	0
857734	2.011000e+00	-2.213248e+01	1.420026e+00	0	0
859688	2.011000e+00	-2.368505e+01	1.453606e+00	0	0
861641	2.011000e+00	-2.617354e+01	1.469793e+00	0	0
863594	2.011000e+00	-3.512817e+01	1.487424e+00	0	0
865547	2.011000e+00	-2.051000e+01	1.504389e+00	0	0
867500	2.011000e+00	-1.370087e+01	1.521252e+00	0	0
869453	2.011000e+00	2.811154e+01	1.537863e+00	0	0
871406	2.011000e+00	2.109922e+01	1.554259e+00	0	0
873359	2.011000e+00	2.774533e+01	1.570438e+00	0	0
875313	2.011000e+00	3.044025e+01	1.586384e+00	0	0
877266	2.011000e+00	2.801386e+01	1.602175e+00	0	0
879219	2.011000e+00	3.128212e+01	1.617467e+00	0	0
881172	2.011000e+00	2.993217e+01	1.633525e+00	0	0
883125	2.011000e+00	1.270956e+01	1.637904e+00	0	0
885078	2.011000e+00	2.900769e+01	1.609134e+00	0	0
887031	2.011000e+00	3.977894e+01	1.579934e+00	0	0
888984	2.011000e+00	4.990065e+01	1.556547e+00	0	0
890938	2.011000e+00	4.511943e+01	1.532531e+00	0	0
892891	2.011000e+00	4.809504e+01	1.508802e+00	0	0
894844	2.011000e+00	4.882036e+01	1.485112e+00	0	0
896797	2.011000e+00	4.268123e+01	1.461531e+00	0	0
898750	2.011000e+00	3.600607e+01	1.438043e+00	0	0
900703	2.011000e+00	2.232104e+01	1.414657e+00	0	0
902656	2.011000e+00	3.523039e+01	1.391375e+00	0	0
904609	2.011000e+00	4.298609e+01	1.368201e+00	0	0
906563	2.011000e+00	6.067773e+01	1.345126e+00	0	0
908516	2.011000e+00	6.895860e+01	1.322179e+00	0	0
910469	2.011000e+00	8.308304e+01	1.299350e+00	0	0
912422	2.011000e+00	9.121258e+01	1.276643e+00	0	0
914375	2.011000e+00	9.026894e+01	1.254061e+00	0	0
916328	2.010775e+00	7.622675e+01	1.231608e+00	0	0
918281	2.010225e+00	6.934104e+01	1.209287e+00	0	0
920234	2.010775e+00	7.375465e+01	1.187103e+00	0	0
922188	2.010226e+00	8.835870e+01	1.165046e+00	0	0
924141	2.010774e+00	1.026563e+02	1.143144e+00	0	0
926094	2.010000e+00	1.082191e+02	1.121388e+00	0	0
928047	2.010000e+00	1.213126e+02	1.099782e+00	0	0
930000	2.010000e+00	1.237643e+02	1.078329e+00	0	0
931953	2.010000e+00	1.335594e+02	1.057033e+00	0	0
933906	2.010226e+00	1.480686e+02	1.035897e+00	0	0
935859	2.010774e+00	1.466543e+02	1.014925e+00	0	0
937813	2.010000e+00	1.542421e+02	9.941101e-01	0	0
939766	2.010000e+00	1.550613e+02	9.734765e-01	0	0
941719	2.010000e+00	1.512378e+02	9.530171e-01	0	0
943672	2.010000e+00	1.485887e+02	9.327356e-01	0	0
945625	2.010000e+00	1.541674e+02	9.126354e-01	0	0
947578	2.010000e+00	1.769108e+02	8.927198e-01	0	0
949531	2.010000e+00	2.051790e+02	8.729929e-01	0	0
951484	2.010000e+00	2.032288e+02	8.534564e-01	0	0
953438	2.010000e+00	2.113488e+02	8.341105e-01	0	0
955391	2.010000e+00	2.277961e+02	8.149538e-01	0	0
957344	2.010000e+00	2.453287e+02	7.960723e-01	0	0
959297	2.010227e+00	2.481017e+02	7.771239e-01	0	0
961250	2.010773e+00	2.432796e+02	7.594027e-01	0	0
963203	2.010000e+00	2.563204e+02	7.380945e-01	0	0
965156	2.010000e+00	2.731454e+02	7.319780e-01	0	0
967109	2.010000e+00	2.969388e+02	7.913928e-01	0	0
969063	2.010000e+00	3.127314e+02	8.605179e-01	0	0
971016	2.010000e+00	3.257321e+02	9.281408e-01	0	0
972969	2.010000e+00	3.256914e+02	9.945729e-01	0	0
974922	2.010000e+00	3.312368e+02	1.059602e+00	0	0
976875	2.010000e+00	3.337651e+02	1.123150e+00	0	0
978828	2.010000e+00	3.397500e+02	1.185091e+00	0	0
980781	2.010000e+00	3.577190e+02	1.245358e+00	0	0
982734	2.010000e+00	3.699868e+02	1.303744e+00	0	0
984688	2.010000e+00	3.792485e+02	1.369102e+00	0	0
986641	2.010000e+00	3.992735e+02	1.449098e+00	0	0
988594	2.010000e+00	4.210814e+02	1.524477e+00	0	0
990547	2.010000e+00	4.397719e+02	1.597858e+00	0	0
992500	2.010000e+00	4.627117e+02	1.668392e+00	0	0
994453	2.010000e+00	4.702981e+02	1.736162e+00	0	0
996406	2.010000e+00	4.705988e+02	1.801001e+00	0	0
998359	2.010000e+00	4.706603e+02	1.862806e+00	0	0
1000313	2.010000e+00	4.737602e+02	1.921492e+00	0	0
1002266	2.010000e+00	4.685788e+02	1.976876e+00	0	0
1004219	2.010000e+00	4.810122e+02	2.028899e+00	0	0
1006172	2.010000e+00	5.182843e+02	2.077355e+00	0	0
1008125	2.010000e+00	5.450460e+02	2.122476e+00	0	0
1010078	2.010000e+00	5.745723e+02	2.162846e+00	0	0
1012031	2.010000e+00	6.037572e+02	2.203210e+00	0	0
1013984	2.010000e+00	6.107250e+02	2.224187e+00	0	0
1015938	2.010000e+00	5.975892e+02	2.130884e+00	0	0
1017891	2.010000e+00	5.997453e+02	1.993302e+00	0	0
1019844	2.010000e+00	6.030033e+02	2.050252e+00	0	0
1021797	2.010000e+00	6.004516e+02	2.250213e+00	0	0
1023750	2.010000e+00	6.090281e+02	2.344063e+00	0	0
1025703	2.010000e+00	5.936306e+02	2.337573e+00	0	0
1027656	2.010000e+00	5.877618e+02	2.333252e+00	0	0
1029609	2.010000e+00	5.902828e+02	2.317824e+00	0	0
1031563	2.010000e+00	5.755460e+02	2.295810e+00	0	0
1033516	2.010000e+00	5.566901e+02	2.263966e+00	0	0
1035469	2.010000e+00	5.221125e+02	2.232412e+00	0	0
1037422	2.010000e+00	4.821702e+02	2.165488e+00	0	0
1039375	2.010000e+00	4.416033e+02	2.203428e+00	0	0
1041328	2.010000e+00	4.206581e+02	2.710354e+00	0	0
1043281	2.010000e+00	4.073007e+02	3.148718e+00	0	0
1045234	2.010000e+00	3.823563e+02	3.213060e+00	0	0
1047188	2.010000e+00	3.633573e+02	2.984104e+00	0	0
1049141	2.010000e+00	3.459185e+02	2.438561e+00	0	0
1051094	2.010000e+00	3.052326e+02	1.789474e+00	0	0
1053047	2.010000e+00	2.535338e+02	1.599862e+00	0	0
1055000	2.010000e+00	2.229726e+02	1.508011e+00	0	0
1056953	2.010000e+00	1.917764e+02	1.406076e+00	0	0
1058906	2.010000e+00	1.533549e+02	1.301598e+00	0	0
1060859	2.010000e+00	1.288918e+02	1.192494e+00	0	0
1062813	2.010000e+00	1.107419e+02	1.081099e+00	0	0
1064766	2.010000e+00	9.881737e+01	9.616276e-01	0	0
1066719	2.010000e+00	1.023426e+02	8.578180e-01	0	0
1068672	2.010000e+00	9.853924e+01	8.208386e-01	0	0
1070625	2.010000e+00	7.874869e+01	5.321032e-01	0	0
1072578	2.010000e+00	7.065493e+01	-1.453357e-01	0	0
1074531	2.010000e+00	4.363374e+01	-6.105548e-01	0	0
1076484	2.010000e+00	3.075297e+01	-8.897910e-01	0	0
1078438	2.010000e+00	1.463681e+01	-8.991328e-01	0	0
1080391	2.010000e+00	-2.555028e+00	-6.047334e-01	0	0
1082344	2.010000e+00	-3.733318e+00	-1.532039e-01	0	0
1084297	2.010000e+00	-1.010163e+01	3.510029e-01	0	0
1086250	2.010000e+00	-1.417237e+01	7.929938e-01	0	0
1088203	2.010000e+00	-9.997262e+00	8.544375e-01	0	0
1090156	2.010000e+00	-2.462263e-01	8.540770e-01	0	0
1092109	2.010000e+00	-1.294381e+01	8.553776e-01	0	0
1094063	2.010000e+00	-1.314365e+01	8.559615e-01	0	0
1096016	2.010000e+00	-1.593518e+01	8.564622e-01	0	0
1097969	2.010000e+00	-3.295458e+01	8.567048e-01	0	0
1099922	2.010000e+00	-5.191294e+01	8.567389e-01	0	0
1101875	2.010000e+00	-6.089296e+01	8.565249e-01	0	0
1103828	2.010000e+00	-6.134063e+01	8.561544e-01	0	0
1105781	2.010000e+00	-6.032596e+01	8.552937e-01	0	0
1107734	2.010000e+00	-5.604555e+01	8.552006e-01	0	0
1109688	2.010000e+00	-5.326981e+01	8.507394e-01	0	0
1111641	2.010000e+00	-3.115473e+01	7.911992e-01	0	0
1113594	2.010000e+00	-3.262237e+01	6.628308e-01	0	0
1115547	2.010000e+00	-2.432289e+01	5.477579e-01	0	0
1117500	2.010000e+00	-2.034647e+01	4.348008e-01	0	0
1119453	2.010000e+00	-2.919002e+01	3.276331e-01	0	0
1121406	2.010000e+00	-3.468062e+01	2.250254e-01	0	0
1123359	2.010000e+00	-2.923869e+01	1.229270e-01	0	0
1125313	2.010000e+00	-2.329430e+01	1.887786e-02	0	0
1127266	2.010000e+00	-2.076961e+01	-8.563551e-02	0	0
1129219	2.010000e+00	-8.250130e+00	-1.898612e-01	0	0
1131172	2.010000e+00	-2.356716e+01	-2.925341e-01	0	0
1133125	2.010000e+00	-2.024820e+01	-3.914310e-01	0	0
1135078	2.010000e+00	-3.648342e+01	-4.848261e-01	0	0
1137031	2.010000e+00	-4.587108e+01	-5.709139e-01	0	0
1138984	2.010000e+00	-5.009800e+01	-6.484832e-01	0	0
1140938	2.010000e+00	-6.032947e+01	-7.176404e-01	0	0
1142891	2.010000e+00	-6.909549e+01	-7.782197e-01	0	0
1144844	2.010000e+00	-5.710508e+01	-8.302086e-01	0	0
1146797	2.010000e+00	-4.920104e+01	-8.735454e-01	0	0
1148750	2.010000e+00	-3.058974e+01	-9.081698e-01	0	0
1150703	2.010000e+00	-3.009760e+01	-9.340280e-01	0	0
1152656	2.009763e+00	-3.432102e+01	-9.510365e-01	0	0
1154609	2.009000e+00	-4.110901e+01	-9.590123e-01	0	0
1156563	2.009000e+00	-4.130736e+01	-9.578591e-01	0	0
1158516	2.009000e+00	-4.678402e+01	-9.475614e-01	0	0
1160469	2.009238e+00	-6.303314e+01	-9.280470e-01	0	0
1162422	2.010000e+00	-5.020382e+01	-8.992510e-01	0	0
1164375	2.009762e+00	-4.528829e+01	-8.611058e-01	0	0
1166328	2.009000e+00	-3.399716e+01	-8.135453e-01	0	0
1168281	2.009000e+00	-3.128965e+01	-7.565010e-01	0	0
1170234	2.009000e+00	-2.565706e+01	-6.899119e-01	0	0
1172188	2.009000e+00	-2.180260e+01	-6.136477e-01	0	0
1174141	2.009000e+00	-4.119823e+01	-5.278021e-01	0	0
1176094	2.009000e+00	-7.624084e+01	-4.319631e-01	0	0
1178047	2.009000e+00	-7.453028e+01	-3.272374e-01	0	0
1180000	2.009000e+00	-7.575337e+01	-2.122980e-01	0	0
1181953	2.009000e+00	-7.308511e+01	-1.314675e-01	0	0
1183906	2.009000e+00	-5.883845e+01	-1.274864e-01	0	0
1185859	2.009000e+00	-3.706802e+01	-6.213020e-02	0	0
1187813	2.009000e+00	-3.204727e+01	1.240595e-01	0	0
1189766	2.009000e+00	-3.575116e+01	4.441083e-01	0	0
1191719	2.009000e+00	-3.655150e+01	6.808095e-01	0	0
1193672	2.009000e+00	-3.221757e+01	6.697271e-01	0	0
1195625	2.009000e+00	-3.931006e+01	6.692187e-01	0	0
1197578	2.009000e+00	-5.760315e+01	6.765441e-01	0	0
1199531	2.009000e+00	-7.013705e+01	6.920558e-01	0	0
1201484	2.009000e+00	-6.043966e+01	7.068917e-01	0	0
1203438	2.009000e+00	-5.288337e+01	7.212458e-01	0	0
1205391	2.009000e+00	-3.494242e+01	7.392161e-01	0	0
1207344	2.009000e+00	-2.410630e+01	7.441545e-01	0	0
1209297	2.009000e+00	-1.889635e+01	8.015232e-01	0	0
1211250	2.009000e+00	6.890884e+00	1.055744e+00	0	0
1213203	2.009000e+00	-3.743988e-01	1.225216e+00	0	0
1215156	2.009000e+00	1.526829e+00	1.335426e+00	0	0
1217109	2.009000e+00	-7.196852e+00	1.628896e+00	0	0
1219063	2.009000e+00	-2.334573e+01	1.857910e+00	0	0
1221016	2.009000e+00	-2.206583e+01	1.564840e+00	0	0
1222969	2.009000e+00	-2.031984e+01	1.348677e+00	0	0
1224922	2.009000e+00	-1.856965e+01	2.339722e+00	0	0
1226875	2.009000e+00	-8.758937e+00	1.860675e+00	0	0
1228828	2.009000e+00	-5.739793e+00	1.211739e+00	0	0
1230781	2.009000e+00	-2.526901e+01	1.476140e+00	0	0
1232734	2.009000e+00	-4.290310e+01	1.586717e+00	0	0
1234688	2.009000e+00	-4.027870e+01	1.795160e+00	0	0
1236641	2.009000e+00	-2.295598e+01	8.344462e-01	0	0
1238594	2.009000e+00	-1.645312e+01	-2.003637e+00	0	0
1240547	2.009000e+00	-2.455685e+01	-2.848993e+00	0	0
1242500	2.009000e+00	-1.851313e+01	-1.720719e+00	0	0
1244453	2.009000e+00	-7.895337e+00	2.633428e-01	0	0
1246406	2.009000e+00	-2.614126e+00	2.168266e-02	0	0
1248359	2.009000e+00	7.083754e+00	2.756668e-01	0	0
1250313	2.009000e+00	9.383394e+00	4.672887e-01	0	0
1252266	2.009000e+00	-3.492900e+00	1.214218e+00	0	0
1254219	2.009000e+00	-5.901472e+00	3.292453e+00	0	0
1256172	2.009000e+00	-1.929133e+01	4.683061e+00	0	0
1258125	2.009000e+00	-2.807676e+01	5.004619e+00	0	0
1260078	2.009000e+00	-4.144262e+01	3.836417e+00	0	0
1262031	2.009000e+00	-5.026291e+01	2.787384e+00	0	0
1263984	2.009000e+00	-5.774599e+01	2.905117e+00	0	0
1265938	2.009000e+00	-6.451486e+01	2.851331e+00	0	0
1267891	2.009000e+00	-3.637735e+01	2.814783e+00	0	0
1269844	2.009000e+00	-2.477979e+01	2.821911e+00	0	0
1271797	2.009000e+00	-2.537002e+01	2.573475e+00	0	0
1273750	2.009000e+00	-2.645416e+01	1.464002e+00	0	0
1275703	2.009000e+00	-2.853494e+01	8.310174e-01	0	0
1277656	2.009000e+00	-3.666886e+01	1.366592e+00	0	0
1279609	2.009000e+00	-3.796090e+01	2.362332e+00	0	0
1281563	2.009000e+00	-5.390671e+01	2.510549e+00	0	0
1283516	2.009000e+00	-4.679918e+01	2.810724e+00	0	0
1285469	2.009000e+00	-4.199246e+01	3.090287e+00	0	0
1287422	2.009000e+00	-3.709878e+01	3.323659e+00	0	0
1289375	2.009000e+00	-2.772662e+01	3.464014e+00	0	0
1291328	2.009000e+00	-1.291449e+01	3.652277e+00	0	0
1293281	2.009000e+00	-2.066227e+01	4.514698e+00	0	0
1295234	2.009000e+00	-3.959217e+01	5.446708e+00	0	0
1297188	2.009000e+00	-2.535702e+01	5.183451e+00	0	0
1299141	2.009000e+00	-3.432335e+01	3.965185e+00	0	0
1301094	2.009000e+00	-3.233738e+01	2.624513e+00	0	0
1303047	2.009000e+00	-3.618170e+01	2.298263e+00	0	0
1305000	2.009000e+00	-3.345106e+01	1.817441e+00	0	0
1306953	2.009000e+00	-2.814206e+01	1.703363e+00	0	0
1308906	2.009000e+00	-2.834482e+01	1.725147e+00	0	0
1310859	2.009000e+00	-1.999468e+01	1.744152e+00	0	0
1312813	2.009000e+00	-1.877798e+01	1.639494e+00	0	0
1314766	2.009000e+00	-3.399387e+01	9.308720e-01	0	0
1316719	2.009000e+00	-3.731887e+01	2.604905e-01	0	0
1318672	2.009000e+00	-5.525936e+01	5.545942e-01	0	0
1320625	2.009000e+00	-7.300766e+01	1.405896e+00	0	0
1322578	2.009000e+00	-7.404103e+01	1.731339e+00	0	0
1324531	2.009000e+00	-6.496017e+01	1.678891e+00	0	0
1326484	2.009000e+00	-5.114760e+01	1.667811e+00	0	0
1328438	2.009000e+00	-4.011237e+01	1.645549e+00	0	0
1330391	2.009000e+00	-3.860087e+01	1.627203e+00	0	0
1332344	2.009000e+00	-3.793198e+01	1.606394e+00	0	0
1334297	2.009000e+00	-4.244980e+01	1.593511e+00	0	0
1336250	2.009000e+00	-4.706644e+01	1.551430e+00	0	0
1338203	2.009000e+00	-5.423282e+01	1.380351e+00	0	0
1340156	2.009000e+00	-6.647107e+01	1.205178e+00	0	0
1342109	2.009000e+00	-6.620365e+01	1.117195e+00	0	0
1344063	2.009000e+00	-6.102423e+01	1.148571e+00	0	0
1346016	2.009000e+00	-5.508445e+01	1.326028e+00	0	0
1347969	2.009000e+00	-3.478981e+01	1.428220e+00	0	0
1349922	2.009000e+00	-4.121949e+01	1.454055e+00	0	0
1351875	2.009000e+00	-4.869886e+01	1.433777e+00	0	0
1353828	2.009000e+00	-5.315247e+01	1.419690e+00	0	0
1355781	2.009000e+00	-6.324607e+01	1.403153e+00	0	0
1357734	2.009000e+00	-6.809971e+01	1.392115e+00	0	0
1359688	2.009000e+00	-6.689603e+01	1.363385e+00	0	0
1361641	2.009000e+00	-7.459316e+01	1.401829e+00	0	0
1363594	2.009000e+00	-6.592680e+01	1.178212e+00	0	0
1365547	2.009000e+00	-6.368723e+01	3.715947e-01	0	0
1367500	2.009000e+00	-5.372671e+01	6.893342e-01	0	0
1369453	2.009000e+00	-2.708062e+01	1.381855e+00	0	0
1371406	2.009000e+00	-5.274382e+01	1.269315e+00	0	0
1373359	2.008751e+00	-5.285847e+01	1.302292e+00	0	0
1375313	2.008250e+00	-5.065004e+01	1.208196e+00	0	0
1377266	2.009000e+00	-5.639646e+01	1.499116e+00	0	0
1379219	2.009000e+00	-6.155072e+01	2.817567e+00	0	0
1381172	2.009000e+00	-4.590507e+01	2.983992e+00	0	0
1383125	2.008750e+00	-6.214216e+01	1.942865e+00	0	0
1385078	2.008250e+00	-5.197407e+01	1.136107e+00	0	0
1387031	2.009000e+00	-4.099745e+01	1.223160e+00	0	0
1388984	2.009000e+00	-3.348396e+01	1.186355e+00	0	0
1390938	2.009000e+00	-4.534208e+01	1.185379e+00	0	0
1392891	2.008750e+00	-4.921965e+01	1.055913e+00	0	0
1394844	2.008000e+00	-3.818835e+01	3.632101e-01	0	0
1396797	2.008000e+00	-4.933617e+01	-5.783428e-01	0	0
1398750	2.008000e+00	-5.902315e+01	-5.572676e-01	0	0
1400703	2.008251e+00	-6.558160e+01	2.015919e-01	0	0
1402656	2.008749e+00	-5.804012e+01	8.058929e-01	0	0
1404609	2.008000e+00	-4.846152e+01	6.553835e-01	0	0
1406563	2.008000e+00	-4.116594e+01	6.130376e-01	0	0
1408516	2.008000e+00	-4.257734e+01	5.445842e-01	0	0
1410469	2.008000e+00	-3.384881e+01	4.861788e-01	0	0
1412422	2.008000e+00	-4.018365e+01	4.282980e-01	0	0
1414375	2.008000e+00	-5.504323e+01	3.736723e-01	0	0
1416328	2.008000e+00	-6.399165e+01	3.217480e-01	0	0
1418281	2.008000e+00	-7.026054e+01	2.728540e-01	0	0
1420234	2.008000e+00	-7.673453e+01	2.270944e-01	0	0
1422188	2.008000e+00	-8.909378e+01	1.846105e-01	0	0
1424141	2.008000e+00	-7.505202e+01	1.455820e-01	0	0
1426094	2.008000e+00	-4.453761e+01	1.101277e-01	0	0
1428047	2.008000e+00	-3.371321e+01	7.838827e-02	0	0
1430000	2.008000e+00	-3.842866e+00	5.050269e-02	0	0
1431953	2.008000e+00	1.770070e+00	2.661686e-02	0	0
1433906	2.008000e+00	1.559435e+01	6.850982e-03	0	0
1435859	2.008000e+00	1.849777e+01	-8.578876e-03	0	0
1437813	2.008000e+00	2.958345e+01	-1.981931e-02	0	0
1439766	2.008000e+00	5.315087e+01	-2.555947e-02	0	0
1441719	2.008000e+00	5.520399e+01	-1.776834e-02	0	0
1443672	2.008000e+00	7.046619e+01	4.356973e-03	0	0
1445625	2.008000e+00	7.779926e+01	2.991158e-02	0	0
1447578	2.008000e+00	7.893315e+01	6.082794e-02	0	0
1449531	2.008000e+00	9.887112e+01	9.769704e-02	0	0
1451484	2.008000e+00	9.260764e+01	1.408032e-01	0	0
1453438	2.008000e+00	7.939409e+01	1.909958e-01	0	0
1455391	2.008000e+00	8.126230e+01	2.490682e-01	0	0
1457344	2.008000e+00	8.347139e+01	3.145154e-01	0	0
1459297	2.008000e+00	8.455276e+01	3.870093e-01	0	0
1461250	2.008000e+00	8.515015e+01	4.661682e-01	0	0
1463203	2.008000e+00	9.908231e+01	5.516241e-01	0	0
1465156	2.008000e+00	1.270626e+02	6.430076e-01	0	0
1467109	2.008000e+00	1.338926e+02	7.399419e-01	0	0
1469063	2.008000e+00	1.416256e+02	8.421346e-01	0	0
1471016	2.008000e+00	1.539335e+02	9.490180e-01	0	0
1472969	2.008000e+00	1.572146e+02	1.060619e+00	0	0
1474922	2.008000e+00	1.898644e+02	1.175274e+00	0	0
1476875	2.008000e+00	1.807408e+02	1.297265e+00	0	0
1478828	2.008000e+00	1.673762e+02	1.387755e+00	0	0
1480781	2.008000e+00	1.570307e+02	1.400525e+00	0	0
1482734	2.008000e+00	1.423515e+02	1.419355e+00	0	0
1484688	2.008000e+00	1.459594e+02	1.423815e+00	0	0
1486641	2.008000e+00	1.472579e+02	1.432171e+00	0	0
1488594	2.008000e+00	1.571086e+02	1.441144e+00	0	0
1490547	2.008000e+00	1.423692e+02	1.451574e+00	0	0
1492500	2.008000e+00	1.324985e+02	1.463197e+00	0	0
1494453	2.008000e+00	1.067668e+02	1.476043e+00	0	0
1496406	2.008000e+00	7.176500e+01	1.490065e+00	0	0
1498359	2.008000e+00	7.327408e+01	1.505236e+00	0	0
1500313	2.008000e+00	4.752081e+01	1.521531e+00	0	0
1502266	2.008000e+00	4.023891e+01	1.538904e+00	0	0
1504219	2.008000e+00	4.117408e+01	1.557330e+00	0	0
1506172	2.008000e+00	3.095436e+01	1.576780e+00	0	0
1508125	2.008000e+00	3.524493e+01	1.597219e+00	0	0
1510078	2.008000e+00	4.902256e+01	1.618623e+00	0	0
1512031	2.008000e+00	2.316449e+01	1.640940e+00	0	0
1513984	2.008000e+00	-5.459651e+00	1.664209e+00	0	0
1515938	2.008000e+00	-1.552552e+01	1.688156e+00	0	0
1517891	2.008000e+00	-4.073180e+01	1.713671e+00	0	0
1519844	2.008000e+00	-5.296447e+01	1.737208e+00	0	0
1521797	2.008000e+00	-6.895219e+01	1.772796e+00	0	0
1523750	2.008000e+00	-6.239602e+01	1.868737e+00	0	0
1525703	2.008000e+00	-5.290113e+01	1.997842e+00	0	0
1527656	2.008000e+00	-4.601050e+01	2.115053e+00	0	0
1529609	2.008000e+00	-5.014467e+01	2.228753e+00	0	0
1531563	2.008000e+00	-4.781948e+01	2.338815e+00	0	0
1533516	2.008000e+00	-5.240345e+01	2.444928e+00	0	0
1535469	2.008000e+00	-6.131857e+01	2.546731e+00	0	0
1537422	2.008000e+00	-7.152550e+01	2.643919e+00	0	0
1539375	2.008000e+00	-7.781262e+01	2.736134e+00	0	0
1541328	2.008000e+00	-9.741433e+01	2.823141e+00	0	0
1543281	2.008000e+00	-9.538070e+01	2.904268e+00	0	0
1545234	2.008000e+00	-7.550337e+01	2.980459e+00	0	0
1547188	2.008000e+00	-7.537333e+01	3.046590e+00	0	0
1549141	2.008000e+00	-6.290230e+01	3.112064e+00	0	0
1551094	2.008000e+00	-7.821266e+01	3.123219e+00	0	0
1553047	2.008000e+00	-8.664109e+01	2.251047e+00	0	0
1555000	2.008000e+00	-9.379932e+01	8.046496e-01	0	0
1556953	2.008000e+00	-1.017802e+02	1.488986e+00	0	0
1558906	2.008000e+00	-1.139738e+02	3.010422e+00	0	0
1560859	2.008000e+00	-1.339681e+02	3.301746e+00	0	0
1562813	2.008000e+00	-1.235427e+02	3.299481e+00	0	0
1564766	2.008000e+00	-9.759357e+01	3.246146e+00	0	0
1566719	2.008000e+00	-7.552811e+01	3.438796e+00	0	0
1568672	2.008000e+00	-6.410339e+01	4.729284e+00	0	0
1570625	2.008000e+00	-6.961856e+01	5.469725e+00	0	0
1572578	2.008000e+00	-7.399622e+01	4.162814e+00	0	0
1574531	2.008000e+00	-5.893984e+01	3.024916e+00	0	0
1576484	2.008000e+00	-6.880785e+01	3.095107e+00	0	0
1578438	2.008000e+00	-8.974664e+01	2.983922e+00	0	0
1580391	2.008000e+00	-9.449959e+01	3.054262e+00	0	0
1582344	2.008000e+00	-1.149769e+02	3.121766e+00	0	0
1584297	2.008000e+00	-1.095489e+02	3.186696e+00	0	0
1586250	2.008000e+00	-1.029060e+02	3.301199e+00	0	0
1588203	2.008000e+00	-9.827862e+01	3.234621e+00	0	0
1590156	2.008000e+00	-1.184089e+02	2.863334e+00	0	0
1592109	2.008000e+00	-1.479132e+02	3.137007e+00	0	0
1594063	2.008000e+00	-1.541898e+02	3.374775e+00	0	0
1596016	2.008000e+00	-1.572724e+02	3.351092e+00	0	0
1597969	2.008000e+00	-1.354802e+02	3.365305e+00	0	0
1599922	2.008000e+00	-9.136350e+01	3.365373e+00	0	0
1601875	2.008000e+00	-8.814439e+00	3.382910e+00	0	0
1603828	2.008000e+00	8.969204e+01	3.339467e+00	0	0
1605781	2.008000e+00	1.916787e+02	3.084688e+00	0	0
1607734	2.007739e+00	3.324295e+02	2.819982e+00	0	0
1609688	2.007262e+00	5.697167e+02	2.584160e+00	0	0
1611641	2.007738e+00	8.650950e+02	2.391701e+00	0	0
1613594	2.007262e+00	1.099674e+03	2.245840e+00	0	0
1615547	2.007738e+00	1.372490e+03	2.143500e+00	0	0
1617500	2.007262e+00	1.627984e+03	2.082642e+00	0	0
1619453	2.008000e+00	1.836345e+03	2.062545e+00	0	0
1621406	2.008000e+00	1.965753e+03	2.083201e+00	0	0
1623359	2.007738e+00	1.912693e+03	2.143621e+00	0	0
1625313	2.007000e+00	1.787955e+03	2.241727e+00	0	0
1627266	2.007000e+00	1.473255e+03	2.376348e+00	0	0
1629219	2.007000e+00	1.161439e+03	2.542863e+00	0	0
1631172	2.007000e+00	9.502533e+02	2.749911e+00	0	0
1633125	2.007000e+00	7.400525e+02	2.952519e+00	0	0
1635078	2.007000e+00	4.978343e+02	2.879794e+00	0	0
1637031	2.007000e+00	1.196556e+02	2.380855e+00	0	0
1638984	2.007000e+00	-1.322861e+02	1.737174e+00	0	0
1640938	2.007000e+00	-2.023222e+02	1.198732e+00	0	0
1642891	2.007000e+00	-2.276936e+02	7.643557e-01	0	0
1644844	2.007000e+00	-2.013957e+02	4.404767e-01	0	0
1646797	2.007000e+00	-1.510948e+02	2.271521e-01	0	0
1648750	2.007000e+00	-1.289680e+02	1.255426e-01	0	0
1650703	2.007000e+00	-7.787166e+01	1.413764e-01	0	0
1652656	2.007000e+00	-4.884024e+01	2.651563e-01	0	0
1654609	2.007000e+00	-4.508308e+01	6.047888e-01	0	0
1656563	2.007000e+00	-2.134217e+01	1.243846e+00	0	0
1658516	2.007000e+00	-1.476135e+01	1.921549e+00	0	0
1660469	2.007000e+00	1.460984e+00	2.678575e+00	0	0
1662422	2.007000e+00	-1.142401e+01	3.462285e+00	0	0
1664375	2.007000e+00	-1.459239e+01	3.827155e+00	0	0
1666328	2.007000e+00	-1.329448e+00	3.635063e+00	0	0
1668281	2.007000e+00	-1.074482e+00	3.261136e+00	0	0
1670234	2.007000e+00	-9.000553e+00	2.302267e+00	0	0
1672188	2.007000e+00	-1.346920e+01	1.320651e+00	0	0
1674141	2.007000e+00	-2.427892e+01	1.920605e-01	0	0
1676094	2.007000e+00	-3.968158e+01	-1.105895e+00	0	0
1678047	2.007000e+00	-4.197371e+01	-2.328979e+00	0	0
1680000	2.007000e+00	-2.554441e+01	-2.955354e+00	0	0
1681953	2.007000e+00	-2.408446e+01	-3.574148e+00	0	0
1683906	2.007000e+00	-9.134753e+00	-4.315206e+00	0	0
1685859	2.007000e+00	-7.404020e+00	-5.048346e+00	0	0
1687813	2.007000e+00	-9.413109e+00	-5.122370e+00	0	0
1689766	2.007000e+00	-2.053992e+00	-4.560464e+00	0	0
1691719	2.007000e+00	-5.839787e+00	-4.109615e+00	0	0
1693672	2.007000e+00	7.860169e-01	-3.679474e+00	0	0
1695625	2.007000e+00	-1.349677e+01	-3.318463e+00	0	0
1697578	2.007000e+00	-1.671402e+01	-3.086179e+00	0	0
1699531	2.007000e+00	-1.068360e+01	-2.891432e+00	0	0
1701484	2.007000e+00	-2.382669e+00	-2.576287e+00	0	0
1703438	2.007000e+00	-6.715278e+00	-1.960730e+00	0	0
1705391	2.007000e+00	-1.508678e+01	-2.274420e+00	0	0
1707344	2.007000e+00	5.511814e+00	2.054360e+00	0	0
1709297	2.007000e+00	2.276952e+01	7.923729e+00	0	0
1711250	2.007000e+00	2.244544e+01	-3.462759e+00	0	0
1713203	2.007000e+00	2.615083e+01	-6.950114e+00	0	0
1715156	2.007000e+00	2.331994e+01	-4.970860e+00	0	0
1717109	2.007000e+00	1.623020e+01	8.443388e+00	0	0
1719063	2.007000e+00	1.341590e+01	2.877817e+01	0	0
1721016	2.007000e+00	1.604984e+01	4.399246e+01	0	0
1722969	2.007000e+00	2.138420e+01	6.239651e+01	0	0
1724922	2.007000e+00	3.335049e+01	8.372446e+01	0	0
1726875	2.007000e+00	3.686791e+01	6.442714e+01	0	0
1728828	2.007000e+00	3.575302e+01	2.418738e+00	0	0
1730781	2.007000e+00	5.583000e+01	-6.485019e+01	0	0
1732734	2.007000e+00	6.598910e+01	-1.319482e+02	0	0
1734688	2.007000e+00	7.364118e+01	-1.473705e+02	0	0
1736641	2.007000e+00	6.943812e+01	-1.073373e+02	0	0
1738594	2.007000e+00	5.420388e+01	-4.748421e+01	0	0
1740547	2.007000e+00	5.182952e+01	6.265186e+00	0	0
1742500	2.007000e+00	4.345370e+01	5.971123e+01	0	0
1744453	2.007000e+00	5.883546e+01	7.508580e+01	0	0
1746406	2.007000e+00	7.239622e+01	5.312570e+01	0	0
1748359	2.007000e+00	7.815547e+01	3.411650e+01	0	0
1750313	2.007000e+00	8.177438e+01	2.451640e+01	0	0
1752266	2.007000e+00	9.374525e+01	2.740543e+00	0	0
1754219	2.007000e+00	8.287146e+01	-6.895307e+00	0	0
1756172	2.007000e+00	6.130281e+01	-7.840921e+00	0	0
1758125	2.007000e+00	6.759610e+01	-5.528938e+00	0	0
1760078	2.007000e+00	6.324847e+01	-4.300332e+00	0	0
1762031	2.007000e+00	5.339695e+01	-3.676995e+00	0	0
1763984	2.007000e+00	6.582225e+01	-3.931009e+00	0	0
1765938	2.007000e+00	7.916901e+01	-3.215998e+00	0	0
1767891	2.007000e+00	9.070415e+01	1.788512e+00	0	0
1769844	2.007000e+00	1.101376e+02	8.088228e+00	0	0
1771797	2.007000e+00	1.098967e+02	9.136288e+00	0	0
1773750	2.007000e+00	1.045105e+02	5.304737e+00	0	0
1775703	2.007000e+00	9.694115e+01	1.866610e+00	0	0
1777656	2.007000e+00	9.534335e+01	3.156464e-01	0	0
1779609	2.007000e+00	9.946835e+01	2.178778e+00	0	0
1781563	2.007000e+00	8.963889e+01	4.427411e+00	0	0
1783516	2.007000e+00	1.029475e+02	6.473190e+00	0	0
1785469	2.007000e+00	1.298601e+02	5.586188e+00	0	0
1787422	2.007000e+00	1.644680e+02	2.833532e+00	0	0
1789375	2.007000e+00	1.758572e+02	6.771789e-01	0	0
1791328	2.007000e+00	1.842760e+02	-4.957311e-01	0	0
1793281	2.007000e+00	1.870468e+02	-1.324783e+00	0	0
1795234	2.007000e+00	1.669216e+02	-1.636103e+00	0	0
1797188	2.007000e+00	1.900872e+02	-1.468175e+00	0	0
1799141	2.007000e+00	1.636972e+02	-1.127667e+00	0	0
1801094	2.007000e+00	1.602740e+02	-7.777083e-01	0	0
1803047	2.007000e+00	1.783728e+02	-2.157382e-01	0	0
1805000	2.007000e+00	1.953929e+02	4.750890e-01	0	0
1806953	2.007000e+00	2.192358e+02	1.126738e+00	0	0
1808906	2.007000e+00	2.168915e+02	1.752447e+00	0	0
1810859	2.007000e+00	2.267663e+02	2.362660e+00	0	0
1812813	2.007000e+00	2.230451e+02	2.868141e+00	0	0
1814766	2.007000e+00	2.244410e+02	2.987614e+00	0	0
1816719	2.007000e+00	2.470516e+02	2.914040e+00	0	0
1818672	2.007000e+00	2.594995e+02	2.796328e+00	0	0
1820625	2.007000e+00	2.592795e+02	2.447347e+00	0	0
1822578	2.007000e+00	2.757198e+02	2.128333e+00	0	0
1824531	2.007000e+00	2.867183e+02	1.834649e+00	0	0
1826484	2.007000e+00	3.166675e+02	1.604131e+00	0	0
1828438	2.007000e+00	3.338852e+02	1.419259e+00	0	0
1830391	2.007000e+00	3.417410e+02	1.266067e+00	0	0
1832344	2.006725e+00	3.452915e+02	1.134372e+00	0	0
1834297	2.006275e+00	3.356643e+02	1.084992e+00	0	0
1836250	2.007000e+00	3.532547e+02	1.232075e+00	0	0
1838203	2.006725e+00	3.589578e+02	1.417738e+00	0	0
1840156	2.006000e+00	3.621793e+02	1.595171e+00	0	0
1842109	2.006275e+00	3.782345e+02	1.766903e+00	0	0
1844063	2.006724e+00	4.044492e+02	1.930831e+00	0	0
1846016	2.006000e+00	4.212627e+02	2.086796e+00	0	0
1847969	2.006000e+00	4.395053e+02	2.234074e+00	0	0
1849922	2.006000e+00	4.565074e+02	2.372924e+00	0	0
1851875	2.006000e+00	4.790320e+02	2.499453e+00	0	0
1853828	2.006000e+00	4.900051e+02	2.625224e+00	0	0
1855781	2.006000e+00	4.938706e+02	2.701000e+00	0	0
1857734	2.006000e+00	4.913779e+02	2.614850e+00	0	0
1859688	2.006000e+00	4.930772e+02	2.528661e+00	0	0
1861641	2.006000e+00	5.071784e+02	2.533513e+00	0	0
1863594	2.006000e+00	5.233406e+02	2.524459e+00	0	0
1865547	2.006000e+00	5.526461e+02	2.519115e+00	0	0
1867500	2.006000e+00	5.677666e+02	2.512763e+00	0	0
1869453	2.006000e+00	5.993111e+02	2.506666e+00	0	0
1871406	2.006000e+00	6.099870e+02	2.500495e+00	0	0
1873359	2.006000e+00	6.085258e+02	2.494302e+00	0	0
1875313	2.006000e+00	6.320807e+02	2.488208e+00	0	0
1877266	2.006000e+00	6.307682e+02	2.481335e+00	0	0
1879219	2.006000e+00	6.272859e+02	2.444422e+00	0	0
1881172	2.006000e+00	6.387342e+02	2.356424e+00	0	0
1883125	2.006000e+00	6.436471e+02	2.270244e+00	0	0
1885078	2.006000e+00	6.612066e+02	2.182317e+00	0	0
1887031	2.006000e+00	6.703277e+02	2.134802e+00	0	0
1888984	2.006000e+00	6.649402e+02	2.188416e+00	0	0
1890938	2.006000e+00	6.421304e+02	2.230016e+00	0	0
1892891	2.006000e+00	6.374432e+02	2.270017e+00	0	0
1894844	2.006000e+00	6.241886e+02	2.304563e+00	0	0
1896797	2.006000e+00	5.859152e+02	2.334491e+00	0	0
1898750	2.006000e+00	5.347348e+02	2.359468e+00	0	0
1900703	2.006000e+00	4.930659e+02	2.379126e+00	0	0
1902656	2.006000e+00	4.495900e+02	2.394403e+00	0	0
1904609	2.006000e+00	4.199433e+02	2.401053e+00	0	0
1906563	2.006000e+00	4.040761e+02	2.414277e+00	0	0
1908516	2.006000e+00	3.903965e+02	2.375747e+00	0	0
1910469	2.006000e+00	3.802951e+02	2.438870e+00	0	0
1912422	2.006000e+00	3.505553e+02	3.161296e+00	0	0
1914375	2.006000e+00	3.220886e+02	3.749073e+00	0	0
1916328	2.006000e+00	2.919238e+02	2.804804e+00	0	0
1918281	2.006000e+00	2.547365e+02	1.429375e+00	0	0
1920234	2.006000e+00	2.210410e+02	1.092463e+00	0	0
1922188	2.006000e+00	2.027579e+02	6.656588e-01	0	0
1924141	2.006000e+00	1.756613e+02	5.094885e-01	0	0
1926094	2.006000e+00	1.826851e+02	-4.413744e-02	0	0
1928047	2.006000e+00	1.655608e+02	-1.624975e+00	0	0
1930000	2.006000e+00	1.472158e+02	-1.437751e+00	0	0
1931953	2.006000e+00	1.290689e+02	3.826231e-01	0	0
1933906	2.006000e+00	9.935934e+01	1.414222e+00	0	0
1935859	2.006000e+00	7.695125e+01	1.509593e+00	0	0
1937813	2.006000e+00	5.888313e+01	1.470494e+00	0	0
1939766	2.006000e+00	3.459196e+01	1.518193e+00	0	0
1941719	2.006000e+00	7.278753e+00	2.176928e+00	0	0
1943672	2.006000e+00	1.795955e+01	2.317711e+00	0	0
1945625	2.006000e+00	3.086387e+01	1.276947e+00	0	0
1947578	2.006000e+00	4.625254e+01	1.423915e+00	0	0
1949531	2.006000e+00	5.521217e+01	1.707771e+00	0	0
1951484	2.006000e+00	6.251337e+01	2.472868e+00	0	0
1953438	2.006000e+00	4.489801e+01	2.876053e+00	0	0
1955391	2.006000e+00	4.521523e+01	3.001448e+00	0	0
1957344	2.006000e+00	3.996227e+01	2.797721e+00	0	0
1959297	2.006000e+00	2.168217e+01	2.407745e+00	0	0
1961250	2.006000e+00	1.466000e+01	1.919041e+00	0	0
1963203	2.006000e+00	1.039447e+01	1.418213e+00	0	0
1965156	2.006000e+00	1.671990e+01	1.207859e+00	0	0
1967109	2.006000e+00	2.592953e+01	1.214542e+00	0	0
1969063	2.006000e+00	3.266380e+01	1.192239e+00	0	0
1971016	2.006000e+00	3.819949e+01	1.178122e+00	0	0
1972969	2.006000e+00	2.640496e+01	1.162234e+00	0	0
1974922	2.006000e+00	3.650307e-01	1.147266e+00	0	0
1976875	2.006000e+00	-1.246213e+00	1.132470e+00	0	0
1978828	2.006000e+00	-4.517043e-01	1.118213e+00	0	0
1980781	2.006000e+00	-5.247413e+00	1.103836e+00	0	0
1982734	2.006000e+00	-1.159161e+01	1.091674e+00	0	0
1984688	2.006000e+00	4.928290e+00	1.073092e+00	0	0
1986641	2.006000e+00	6.633412e+00	1.080368e+00	0	0
1988594	2.006000e+00	1.515926e+01	9.852680e-01	0	0
1990547	2.006000e+00	2.206730e+01	5.873442e-01	0	0
1992500	2.006000e+00	6.363699e+00	2.249298e-01	0	0
1994453	2.006000e+00	-7.947045e+00	-6.328235e-02	0	0
1996406	2.006000e+00	-2.697320e+01	-2.795266e-01	0	0
1998359	2.006000e+00	-1.139425e+01	-4.257007e-01	0	0
2000313	2.006000e+00	-3.291535e+01	-5.039686e-01	0	0
2002266	2.006000e+00	-5.504152e+01	-5.157026e-01	0	0
2004219	2.006000e+00	-4.238092e+01	-4.603826e-01	0	0
2006172	2.006000e+00	-4.455193e+01	-3.387532e-01	0	0
2008125	2.006000e+00	-3.400535e+01	-1.531271e-01	0	0
2010078	2.006000e+00	-3.265134e+01	9.324383e-02	0	0
2012031	2.006000e+00	-2.559473e+01	4.015725e-01	0	0
2013984	2.006000e+00	-1.125198e+01	7.532350e-01	0	0
2015938	2.006000e+00	-2.638134e-01	9.489624e-01	0	0
2017891	2.006000e+00	-8.042245e+00	9.236871e-01	0	0
2019844	2.006000e+00	-8.379101e+00	9.536752e-01	0	0
2021797	2.006000e+00	-1.152997e+01	9.716414e-01	0	0
2023750	2.006000e+00	-1.840666e+01	9.922456e-01	0	0
2025703	2.006000e+00	-1.539800e+01	1.011329e+00	0	0
2027656	2.006000e+00	-2.139360e+01	1.030402e+00	0	0
2029609	2.006000e+00	-4.181640e+00	1.047506e+00	0	0
2031563	2.006000e+00	3.291943e+00	1.068903e+00	0	0
2033516	2.006000e+00	-1.171233e+01	1.073493e+00	0	0
2035469	2.006000e+00	-6.808448e+00	1.327392e+00	0	0
2037422	2.006000e+00	-1.302386e+01	1.981709e+00	0	0
2039375	2.006000e+00	-5.636238e-01	2.412731e+00	0	0
2041328	2.006000e+00	-1.556738e+01	2.702377e+00	0	0
2043281	2.006000e+00	-7.848608e+00	2.807711e+00	0	0
2045234	2.006000e+00	8.778729e-01	2.715356e+00	0	0
2047188	2.006000e+00	1.726245e+01	2.419152e+00	0	0
2049141	2.006000e+00	3.390437e+01	1.788264e+00	0	0
2051094	2.006000e+00	2.500586e+01	1.184451e+00	0	0
2053047	2.006000e+00	3.379961e+01	1.225980e+00	0	0
2055000	2.006000e+00	1.986371e+01	1.220724e+00	0	0
2056953	2.006000e+00	1.648632e+01	1.232669e+00	0	0
2058906	2.006000e+00	6.494713e+00	1.240718e+00	0	0
2060859	2.006000e+00	8.380839e+00	1.242550e+00	0	0
2062813	2.005711e+00	9.757014e+00	1.268507e+00	0	0
2064766	2.005289e+00	1.782206e+01	1.189431e+00	0	0
2066719	2.006000e+00	1.096053e+01	6.546882e-01	0	0
2068672	2.006000e+00	2.421057e+01	-2.200310e-02	0	0
2070625	2.005710e+00	3.821112e+01	-4.311022e-01	0	0
2072578	2.005290e+00	4.407353e+01	-6.100010e-01	0	0
2074531	2.006000e+00	2.785833e+01	-5.225021e-01	0	0
2076484	2.006000e+00	2.405641e+01	-1.974193e-01	0	0
2078438	2.005710e+00	1.269801e+00	3.711549e-01	0	0
2080391	2.005000e+00	1.580426e+01	1.033055e+00	0	0
2082344	2.005000e+00	1.539263e+01	1.290280e+00	0	0
2084297	2.005000e+00	7.379352e+00	1.252878e+00	0	0
2086250	2.005000e+00	2.753811e+01	1.254168e+00	0	0
2088203	2.005000e+00	3.319822e+01	1.243245e+00	0	0
2090156	2.005000e+00	4.311284e+01	1.233796e+00	0	0
2092109	2.005000e+00	2.502512e+01	1.222279e+00	0	0
2094063	2.005000e+00	2.691655e+01	1.209467e+00	0	0
2096016	2.005000e+00	1.774081e+01	1.196090e+00	0	0
2097969	2.005000e+00	1.261018e+01	1.178764e+00	0	0
2099922	2.005000e+00	5.212381e-01	1.171069e+00	0	0
2101875	2.005000e+00	3.208682e+00	1.164124e+00	0	0
2103828	2.005000e+00	2.667639e+00	1.236705e+00	0	0
2105781	2.005000e+00	1.065304e+01	1.553729e+00	0	0
2107734	2.005000e+00	3.005669e+01	1.928073e+00	0	0
2109688	2.005000e+00	3.034114e+01	2.340619e+00	0	0
2111641	2.005000e+00	2.071461e+01	2.765623e+00	0	0
2113594	2.005000e+00	1.000679e+00	3.086884e+00	0	0
2115547	2.005000e+00	1.812360e+01	3.238511e+00	0	0
2117500	2.005000e+00	2.985252e+01	3.235902e+00	0	0
2119453	2.005000e+00	2.451347e+01	3.083249e+00	0	0
2121406	2.005000e+00	1.652372e+01	2.782746e+00	0	0
2123359	2.005000e+00	1.564481e+01	2.356064e+00	0	0
2125313	2.005000e+00	3.084553e+01	1.750902e+00	0	0
2127266	2.005000e+00	4.614215e+01	1.291396e+00	0	0
2129219	2.005000e+00	5.242119e+01	1.372886e+00	0	0
2131172	2.005000e+00	3.832446e+01	1.368064e+00	0	0
2133125	2.005000e+00	3.674550e+01	1.378655e+00	0	0
2135078	2.005000e+00	3.540112e+01	1.386418e+00	0	0
2137031	2.005000e+00	1.557729e+01	1.379367e+00	0	0
2138984	2.005000e+00	1.393676e+01	1.434608e+00	0	0
2140938	2.005000e+00	2.255934e+01	1.237040e+00	0	0
2142891	2.005000e+00	-2.978679e+00	4.271857e-01	0	0
2144844	2.005000e+00	-1.269461e+00	-9.677107e-02	0	0
2146797	2.005000e+00	2.177029e+01	-3.481638e-01	0	0
2148750	2.005000e+00	2.951431e+01	-3.025145e-01	0	0
2150703	2.005000e+00	2.727104e+01	1.487836e-02	0	0
2152656	2.005000e+00	2.590290e+01	6.603189e-01	0	0
2154609	2.005000e+00	1.770275e+01	1.336160e+00	0	0
2156563	2.005000e+00	2.765687e+01	1.465361e+00	0	0
2158516	2.005000e+00	2.396947e+01	1.463725e+00	0	0
2160469	2.005000e+00	1.928047e+01	1.474257e+00	0	0
2162422	2.005000e+00	1.738570e+01	1.481688e+00	0	0
2164375	2.005000e+00	2.014695e+01	1.490397e+00	0	0
2166328	2.005000e+00	1.753127e+01	1.498132e+00	0	0
2168281	2.005000e+00	2.950483e+01	1.509513e+00	0	0
2170234	2.005000e+00	3.896629e+01	1.508307e+00	0	0
2172188	2.005000e+00	3.492943e+01	1.559402e+00	0	0
2174141	2.005000e+00	2.501064e+01	1.776587e+00	0	0
2176094	2.005000e+00	1.752576e+01	1.935284e+00	0	0
2178047	2.005000e+00	1.907577e+01	1.824136e+00	0	0
2180000	2.005000e+00	-2.180673e+00	1.603954e+00	0	0
2181953	2.005000e+00	-6.268949e+00	1.570056e+00	0	0
2183906	2.005000e+00	-1.326504e-01	1.583510e+00	0	0
2185859	2.005000e+00	8.341457e+00	1.592735e+00	0	0
2187813	2.005000e+00	6.419720e+00	1.603298e+00	0	0
2189766	2.005000e+00	2.377687e+01	1.613698e+00	0	0
2191719	2.005000e+00	2.838970e+01	1.624337e+00	0	0
2193672	2.005000e+00	2.075491e+01	1.635108e+00	0	0
2195625	2.005000e+00	1.206731e+01	1.646037e+00	0	0
2197578	2.005000e+00	3.932517e+00	1.657116e+00	0	0
2199531	2.005000e+00	8.948247e-01	1.668345e+00	0	0
2201484	2.005000e+00	-7.734408e+00	1.679722e+00	0	0
2203438	2.005000e+00	-1.642716e+01	1.691258e+00	0	0
2205391	2.005000e+00	-9.566739e+00	1.702914e+00	0	0
2207344	2.005000e+00	-4.657940e+00	1.714794e+00	0	0
2209297	2.005000e+00	9.674768e+00	1.726518e+00	0	0
2211250	2.005000e+00	2.828291e+01	1.739507e+00	0	0
2213203	2.005000e+00	2.037666e+01	1.748447e+00	0	0
2215156	2.005000e+00	1.397750e+01	1.773166e+00	0	0
2217109	2.005000e+00	3.836259e+00	1.734710e+00	0	0
2219063	2.005000e+00	-1.011415e+01	1.547303e+00	0	0
2221016	2.005000e+00	-6.608848e+00	1.422961e+00	0	0
2222969	2.005000e+00	-5.639805e+00	1.340362e+00	0	0
2224922	2.005000e+00	-2.112323e+00	1.295342e+00	0	0
2226875	2.005000e+00	8.778771e+00	1.283690e+00	0	0
2228828	2.005000e+00	1.734266e+01	1.313896e+00	0	0
2230781	2.005000e+00	2.426037e+01	1.384220e+00	0	0
2232734	2.005000e+00	2.194726e+01	1.492614e+00	0	0
2234688	2.005000e+00	1.162554e+01	1.635537e+00	0	0
2236641	2.005000e+00	4.174664e+00	1.813890e+00	0	0
2238594	2.005000e+00	3.459243e+00	1.936067e+00	0	0
2240547	2.005000e+00	-7.512275e+00	1.935350e+00	0	0
2242500	2.005000e+00	-3.838390e+00	1.954061e+00	0	0
2244453	2.005000e+00	1.655616e+01	1.967771e+00	0	0
2246406	2.005000e+00	2.201858e+01	1.983022e+00	0	0
2248359	2.005000e+00	2.946331e+01	1.998061e+00	0	0
2250313	2.005000e+00	3.829345e+01	2.013358e+00	0	0
2252266	2.005000e+00	3.507762e+01	2.028790e+00	0	0
2254219	2.005000e+00	2.212145e+01	2.044315e+00	0	0
2256172	2.005000e+00	2.364591e+01	2.060230e+00	0	0
2258125	2.005000e+00	9.975264e+00	2.075387e+00	0	0
2260078	2.005000e+00	-3.568657e+00	2.094069e+00	0	0
2262031	2.005000e+00	-2.083876e+00	2.100278e+00	0	0
2263984	2.005000e+00	-3.244317e+00	2.153720e+00	0	0
2265938	2.005000e+00	-5.399414e+00	2.021322e+00	0	0
2267891	2.005000e+00	2.410581e+00	1.842575e+00	0	0
2269844	2.005000e+00	7.807577e+00	2.276215e+00	0	0
2271797	2.005000e+00	-2.194522e+00	2.475526e+00	0	0
2273750	2.005000e+00	-3.070161e+00	2.698797e+00	0	0
2275703	2.005000e+00	1.365331e+00	2.855518e+00	0	0
2277656	2.005000e+00	8.210245e+00	3.077089e+00	0	0
2279609	2.005000e+00	1.180875e+01	3.439285e+00	0	0
2281563	2.005000e+00	1.653754e+01	4.075043e+00	0	0
2283516	2.005000e+00	2.799710e+01	4.594963e+00	0	0
2285469	2.005000e+00	3.520966e+01	4.001051e+00	0	0
2287422	2.005000e+00	5.989733e+01	3.550218e+00	0	0
2289375	2.005000e+00	1.097994e+02	3.103314e+00	0	0
2291328	2.005000e+00	1.339332e+02	3.137730e+00	0	0
2293281	2.005000e+00	1.383476e+02	3.088196e+00	0	0
2295234	2.005000e+00	1.407793e+02	3.055896e+00	0	0
2297188	2.005000e+00	1.327675e+02	3.018289e+00	0	0
2299141	2.005000e+00	1.270154e+02	2.964741e+00	0	0
2301094	2.005000e+00	1.296962e+02	2.960921e+00	0	0
2303047	2.005000e+00	1.338100e+02	2.736288e+00	0	0
2305000	2.004696e+00	1.368716e+02	1.910343e+00	0	0
2306953	2.004304e+00	1.429189e+02	1.196608e+00	0	0
2308906	2.005000e+00	1.538209e+02	7.972427e-01	0	0
2310859	2.004696e+00	1.549695e+02	7.494918e-01	0	0
2312813	2.004000e+00	1.412237e+02	1.076967e+00	0	0
2314766	2.004305e+00	1.331056e+02	1.631495e+00	0	0
2316719	2.005000e+00	1.318108e+02	2.256841e+00	0	0
2318672	2.004695e+00	1.470531e+02	2.648483e+00	0	0
2320625	2.004305e+00	1.620514e+02	2.612116e+00	0	0
2322578	2.005000e+00	1.630182e+02	2.635433e+00	0	0
2324531	2.004695e+00	1.964712e+02	2.623812e+00	0	0
2326484	2.004000e+00	2.303091e+02	2.619715e+00	0	0
2328438	2.004000e+00	2.476604e+02	2.613595e+00	0	0
2330391	2.004000e+00	2.504736e+02	2.608007e+00	0	0
2332344	2.004000e+00	2.366830e+02	2.602256e+00	0	0
2334297	2.004000e+00	2.317583e+02	2.596523e+00	0	0
2336250	2.004000e+00	2.371975e+02	2.590737e+00	0	0
2338203	2.004000e+00	2.019119e+02	2.584958e+00	0	0
2340156	2.004000e+00	1.717994e+02	2.578977e+00	0	0
2342109	2.004000e+00	1.721897e+02	2.573530e+00	0	0
2344063	2.004000e+00	1.644894e+02	2.571467e+00	0	0
2346016	2.004000e+00	1.449343e+02	2.990263e+00	0	0
2347969	2.004000e+00	1.409707e+02	4.027645e+00	0	0
2349922	2.004000e+00	1.362486e+02	4.929933e+00	0	0
2351875	2.004000e+00	1.239009e+02	5.592474e+00	0	0
2353828	2.004000e+00	1.046724e+02	5.875603e+00	0	0
2355781	2.004000e+00	9.188613e+01	5.820476e+00	0	0
2357734	2.004000e+00	7.402697e+01	5.418137e+00	0	0
2359688	2.004000e+00	3.967048e+01	4.739414e+00	0	0
2361641	2.004000e+00	2.738748e+01	3.585753e+00	0	0
2363594	2.004000e+00	1.334264e+01	2.813413e+00	0	0
2365547	2.004000e+00	6.036179e+00	3.069280e+00	0	0
2367500	2.004000e+00	8.699545e+00	2.551259e+00	0	0
2369453	2.004000e+00	8.015834e+00	2.431200e+00	0	0
2371406	2.004000e+00	1.063094e+01	2.458980e+00	0	0
2373359	2.004000e+00	-8.281796e+00	2.290620e+00	0	0
2375313	2.004000e+00	-2.119400e+01	1.219343e+00	0	0
2377266	2.004000e+00	-4.048197e+01	-8.087493e-01	0	0
2379219	2.004000e+00	-5.386972e+01	-2.426076e+00	0	0
2381172	2.004000e+00	-4.998829e+01	-2.036817e+00	0	0
2383125	2.004000e+00	-6.874646e+01	-1.299206e+00	0	0
2385078	2.004000e+00	-6.488844e+01	-1.261040e+00	0	0
2387031	2.004000e+00	-6.102797e+01	-7.604887e-01	0	0
2388984	2.004000e+00	-5.335312e+01	-1.334836e-01	0	0
2390938	2.004000e+00	-4.609429e+01	1.106660e+00	0	0
2392891	2.004000e+00	-5.081971e+01	2.410705e+00	0	0
2394844	2.004000e+00	-5.906579e+01	2.206648e+00	0	0
2396797	2.004000e+00	-8.385782e+01	2.242440e+00	0	0
2398750	2.004000e+00	-1.125187e+02	2.213189e+00	0	0
2400703	2.004000e+00	-1.265782e+02	2.198796e+00	0	0
2402656	2.004000e+00	-1.201514e+02	2.189717e+00	0	0
2404609	2.004000e+00	-1.098269e+02	2.147553e+00	0	0
2406563	2.004000e+00	-1.076966e+02	2.490671e+00	0	0
2408516	2.004000e+00	-7.464789e+01	3.394301e+00	0	0
2410469	2.004000e+00	-5.574200e+01	3.895715e+00	0	0
2412422	2.004000e+00	-5.870239e+01	4.231950e+00	0	0
2414375	2.004000e+00	-6.515685e+01	4.456569e+00	0	0
2416328	2.004000e+00	-5.822649e+01	4.598917e+00	0	0
2418281	2.004000e+00	-6.516807e+01	4.655333e+00	0	0
2420234	2.004000e+00	-7.808446e+01	4.627353e+00	0	0
2422188	2.004000e+00	-9.760204e+01	4.517105e+00	0	0
2424141	2.004000e+00	-9.868027e+01	4.339761e+00	0	0
2426094	2.004000e+00	-9.244233e+01	4.114316e+00	0	0
2428047	2.004000e+00	-8.609909e+01	3.847174e+00	0	0
2430000	2.004000e+00	-7.532062e+01	3.528981e+00	0	0
2431953	2.004000e+00	-6.568557e+01	3.179475e+00	0	0
2433906	2.004000e+00	-6.269872e+01	2.713779e+00	0	0
2435859	2.004000e+00	-5.836884e+01	2.460004e+00	0	0
2437813	2.004000e+00	-6.978502e+01	2.805258e+00	0	0
2439766	2.004000e+00	-1.068101e+02	2.468442e+00	0	0
2441719	2.004000e+00	-1.380479e+02	1.784632e+00	0	0
2443672	2.004000e+00	-1.786920e+02	1.877437e+00	0	0
2445625	2.004000e+00	-1.853175e+02	1.833282e+00	0	0
2447578	2.004000e+00	-1.791583e+02	1.830017e+00	0	0
2449531	2.004000e+00	-1.181752e+02	1.801223e+00	0	0
2451484	2.004000e+00	-3.385278e+01	1.834783e+00	0	0
2453438	2.004000e+00	3.733164e+01	1.632102e+00	0	0
2455391	2.004000e+00	1.133401e+02	1.416512e+00	0	0
2457344	2.004000e+00	2.009817e+02	1.813583e+00	0	0
2459297	2.004000e+00	3.108683e+02	1.733848e+00	0	0
2461250	2.004000e+00	5.356512e+02	1.762842e+00	0	0
2463203	2.004000e+00	8.177696e+02	1.764617e+00	0	0
2465156	2.004000e+00	1.075116e+03	1.773896e+00	0	0
2467109	2.004000e+00	1.353308e+03	1.781383e+00	0	0
2469063	2.004000e+00	1.616057e+03	1.789582e+00	0	0
2471016	2.004000e+00	1.852690e+03	1.797824e+00	0	0
2472969	2.004000e+00	1.975148e+03	1.806301e+00	0	0
2474922	2.004000e+00	1.906968e+03	1.814971e+00	0	0
2476875	2.004000e+00	1.768647e+03	1.823855e+00	0	0
2478828	2.004000e+00	1.451467e+03	1.832956e+00	0	0
2480781	2.004000e+00	1.118957e+03	1.842283e+00	0	0
2482734	2.004000e+00	9.137890e+02	1.851843e+00	0	0
2484688	2.004000e+00	7.246129e+02	1.861649e+00	0	0
2486641	2.004000e+00	5.273309e+02	1.871697e+00	0	0
2488594	2.004000e+00	1.887076e+02	1.882004e+00	0	0
2490547	2.004000e+00	-6.466177e+01	1.892559e+00	0	0
2492500	2.004000e+00	-1.623488e+02	1.903300e+00	0	0
2494453	2.004000e+00	-2.049092e+02	1.914202e+00	0	0
2496406	2.004000e+00	-2.062460e+02	1.925289e+00	0	0
2498359	2.004000e+00	-1.931845e+02	1.936706e+00	0	0
2500313	2.004000e+00	-1.805966e+02	1.948680e+00	0	0
2502266	2.004000e+00	-1.505333e+02	1.961548e+00	0	0
2504219	2.004000e+00	-1.121871e+02	1.976223e+00	0	0
2506172	2.004000e+00	-7.424882e+01	1.993188e+00	0	0
2508125	2.003684e+00	-2.974932e+01	2.012259e+00	0	0
2510078	2.003316e+00	-3.035330e+01	2.033399e+00	0	0
2512031	2.004000e+00	-2.913702e+01	2.056398e+00	0	0
2513984	2.004000e+00	-2.269869e+01	2.081575e+00	0	0
2515938	2.004000e+00	-2.039740e+01	2.107333e+00	0	0
2517891	2.004000e+00	-2.074459e+01	2.139225e+00	0	0
2519844	2.004000e+00	-3.539288e+01	2.155992e+00	0	0
2521797	2.004000e+00	-2.919534e+01	2.240420e+00	0	0
2523750	2.004000e+00	-1.535600e+01	2.328013e+00	0	0
2525703	2.004000e+00	-2.205756e+01	2.249126e+00	0	0
2527656	2.004000e+00	-1.855444e+01	2.303354e+00	0	0
2529609	2.004000e+00	-1.555422e+00	2.339419e+00	0	0
2531563	2.004000e+00	-1.061894e+01	2.359681e+00	0	0
2533516	2.004000e+00	-2.907515e+01	2.467627e+00	0	0
2535469	2.004000e+00	-2.896977e+01	2.220458e+00	0	0
2537422	2.004000e+00	-2.878955e+01	1.618769e+00	0	0
2539375	2.004000e+00	-3.521174e+01	2.132838e+00	0	0
2541328	2.004000e+00	-4.381454e+01	2.628393e+00	0	0
2543281	2.004000e+00	-3.845278e+01	2.601120e+00	0	0
2545234	2.004000e+00	-3.660510e+01	2.661782e+00	0	0
2547188	2.003681e+00	-2.292066e+01	2.699305e+00	0	0
2549141	2.003000e+00	-2.326417e+01	2.743297e+00	0	0
2551094	2.003000e+00	-2.542212e+01	2.785734e+00	0	0
2553047	2.003000e+00	-2.155615e+01	2.828584e+00	0	0
2555000	2.003000e+00	-2.701138e+01	2.871524e+00	0	0
2556953	2.003000e+00	-3.865078e+01	2.916537e+00	0	0
2558906	2.003319e+00	-3.961643e+01	2.967290e+00	0	0
2560859	2.003681e+00	-3.660502e+01	3.021317e+00	0	0
2562813	2.003000e+00	-4.318393e+01	3.090275e+00	0	0
2564766	2.003000e+00	-3.287243e+01	3.135645e+00	0	0
2566719	2.003000e+00	-1.844276e+01	3.367068e+00	0	0
2568672	2.003000e+00	-2.335188e+00	3.884457e+00	0	0
2570625	2.003000e+00	3.957687e+00	4.160172e+00	0	0
2572578	2.003000e+00	8.371807e+00	4.346021e+00	0	0
2574531	2.003000e+00	-7.969617e-02	4.432162e+00	0	0
2576484	2.003000e+00	-5.081276e+00	4.364645e+00	0	0
2578438	2.003000e+00	-2.484245e+01	4.207122e+00	0	0
2580391	2.003000e+00	-3.506330e+01	3.953952e+00	0	0
2582344	2.003000e+00	-2.475932e+01	3.728511e+00	0	0
2584297	2.003000e+00	-7.652037e+00	3.720460e+00	0	0
2586250	2.003000e+00	-2.046005e+00	3.734178e+00	0	0
2588203	2.003000e+00	6.793640e+00	3.747144e+00	0	0
2590156	2.003000e+00	1.535459e+01	3.761281e+00	0	0
2592109	2.003000e+00	1.605092e+01	3.770445e+00	0	0
2594063	2.003000e+00	2.224240e+01	3.797307e+00	0	0
2596016	2.003000e+00	2.116730e+01	3.757261e+00	0	0
2597969	2.003000e+00	8.518787e+00	3.990833e+00	0	0
2599922	2.003000e+00	6.713697e-01	4.801455e+00	0	0
2601875	2.003000e+00	4.974033e+00	5.180978e+00	0	0
2603828	2.003000e+00	3.736680e+00	4.724906e+00	0	0
2605781	2.003000e+00	1.472672e+01	3.963794e+00	0	0
2607734	2.003000e+00	3.009934e+01	3.863443e+00	0	0
2609688	2.003000e+00	2.833378e+01	3.888026e+00	0	0
2611641	2.003000e+00	3.114690e+01	3.873930e+00	0	0
2613594	2.003000e+00	1.705885e+01	3.970657e+00	0	0
2615547	2.003000e+00	-1.233570e+00	3.523431e+00	0	0
2617500	2.003000e+00	6.713202e-01	2.129138e+00	0	0
2619453	2.003000e+00	-5.882005e+00	1.785620e+00	0	0
2621406	2.003000e+00	-7.996076e+00	2.491943e+00	0	0
2623359	2.003000e+00	1.935597e+00	2.948353e+00	0	0
2625313	2.003000e+00	2.400406e+01	2.638729e+00	0	0
2627266	2.003000e+00	5.060250e+01	2.468264e+00	0	0
2629219	2.003000e+00	7.715902e+01	2.271864e+00	0	0
2631172	2.003000e+00	8.375128e+01	2.091710e+00	0	0
2633125	2.003000e+00	8.203027e+01	1.914589e+00	0	0
2635078	2.003000e+00	8.081391e+01	1.741661e+00	0	0
2637031	2.003000e+00	5.916890e+01	1.571997e+00	0	0
2638984	2.003000e+00	4.996775e+01	1.398647e+00	0	0
2640938	2.003000e+00	5.675656e+01	1.242936e+00	0	0
2642891	2.003000e+00	5.431874e+01	1.155041e+00	0	0
2644844	2.003000e+00	6.547309e+01	1.085660e+00	0	0
2646797	2.003000e+00	8.543140e+01	9.826278e-01	0	0
2648750	2.003000e+00	1.062395e+02	8.565310e-01	0	0
2650703	2.003000e+00	1.243181e+02	7.073198e-01	0	0
2652656	2.003000e+00	1.393677e+02	5.372443e-01	0	0
2654609	2.003000e+00	1.342189e+02	3.499934e-01	0	0
2656563	2.003000e+00	1.298910e+02	1.401337e-01	0	0
2658516	2.003000e+00	1.271797e+02	-1.231878e-01	0	0
2660469	2.003000e+00	1.265908e+02	-4.586102e-01	0	0
2662422	2.003000e+00	1.298361e+02	-8.581835e-01	0	0
2664375	2.003000e+00	1.442861e+02	-1.310525e+00	0	0
2666328	2.003000e+00	1.603358e+02	-1.808961e+00	0	0
2668281	2.003000e+00	1.819874e+02	-2.329084e+00	0	0
2670234	2.003000e+00	2.057072e+02	-2.912697e+00	0	0
2672188	2.003000e+00	2.066260e+02	-3.330739e+00	0	0
2674141	2.003000e+00	2.016455e+02	-2.876936e+00	0	0
2676094	2.003000e+00	2.066303e+02	-9.790858e-01	0	0
2678047	2.003000e+00	1.909418e+02	3.001625e+00	0	0
2680000	2.003000e+00	1.840948e+02	5.692544e+00	0	0
2681953	2.003000e+00	2.031790e+02	3.602572e+00	0	0
2683906	2.003000e+00	2.112749e+02	8.387009e-01	0	0
2685859	2.003000e+00	2.398277e+02	1.745968e+00	0	0
2687813	2.003000e+00	2.704268e+02	8.694890e+00	0	0
2689766	2.003000e+00	3.057675e+02	6.515521e+00	0	0
2691719	2.003000e+00	3.158165e+02	-6.981749e+00	0	0
2693672	2.003000e+00	3.201137e+02	-1.052384e+01	0	0
2695625	2.003000e+00	3.278818e+02	-7.224822e+00	0	0
2697578	2.003000e+00	3.231386e+02	8.847081e+00	0	0
2699531	2.003000e+00	3.141415e+02	2.710326e+01	0	0
2701484	2.003000e+00	3.068518e+02	4.344241e+01	0	0
2703438	2.003000e+00	3.095933e+02	7.189692e+01	0	0
2705391	2.003000e+00	3.192809e+02	9.252451e+01	0	0
2707344	2.003000e+00	3.543131e+02	6.990190e+01	0	0
2709297	2.003000e+00	3.850176e+02	7.441970e+00	0	0
2711250	2.003000e+00	4.015399e+02	-6.374746e+01	0	0
2713203	2.003000e+00	4.259355e+02	-1.326420e+02	0	0
2715156	2.003000e+00	4.408966e+02	-1.478936e+02	0	0
2717109	2.003000e+00	4.404598e+02	-1.021290e+02	0	0
2719063	2.003000e+00	4.466475e+02	-3.357309e+01	0	0
2721016	2.003000e+00	4.604941e+02	2.738435e+01	0	0
2722969	2.003000e+00	4.638286e+02	7.213198e+01	0	0
2724922	2.003000e+00	4.779045e+02	6.497056e+01	0	0
2726875	2.003000e+00	4.845056e+02	3.765514e+01	0	0
2728828	2.003000e+00	5.025552e+02	2.054031e+01	0	0
2730781	2.003000e+00	5.112605e+02	5.467890e+00	0	0
2732734	2.003000e+00	5.024368e+02	-9.416261e+00	0	0
2734688	2.003000e+00	5.226108e+02	-1.015260e+01	0	0
2736641	2.003000e+00	5.098237e+02	-6.871303e+00	0	0
2738594	2.003000e+00	4.957065e+02	-4.760364e+00	0	0
2740547	2.003000e+00	4.987238e+02	-2.715536e+00	0	0
2742500	2.003000e+00	4.969912e+02	-1.221062e+00	0	0
2744453	2.003000e+00	4.743264e+02	5.644804e-01	0	0
2746406	2.003000e+00	4.577435e+02	5.618077e+00	0	0
2748359	2.002668e+00	4.363209e+02	1.004086e+01	0	0
2750313	2.002333e+00	4.295572e+02	8.043026e+00	0	0
2752266	2.003000e+00	4.139627e+02	4.389645e+00	0	0
2754219	2.003000e+00	3.753420e+02	3.687453e+00	0	0
2756172	2.003000e+00	3.442956e+02	6.452269e+00	0	0
2758125	2.003000e+00	3.191074e+02	8.063443e+00	0	0
2760078	2.003000e+00	2.841905e+02	1.049275e+01	0	0
2762031	2.003000e+00	2.411900e+02	1.154109e+01	0	0
2763984	2.003000e+00	2.129756e+02	9.138832e+00	0	0
2765938	2.002666e+00	1.795222e+02	4.250678e+00	0	0
2767891	2.002334e+00	1.638138e+02	9.842050e-01	0	0
2769844	2.003000e+00	1.418328e+02	5.328378e-01	0	0
2771797	2.003000e+00	1.301281e+02	1.424483e-01	0	0
2773750	2.003000e+00	1.094756e+02	3.375094e-01	0	0
2775703	2.002666e+00	8.125792e+01	5.416892e-02	0	0
2777656	2.002000e+00	4.452578e+01	-3.867649e-01	0	0
2779609	2.002334e+00	2.439694e+01	6.174703e-01	0	0
2781563	2.003000e+00	4.253271e+00	1.503270e+00	0	0
2783516	2.002665e+00	-1.665337e+01	2.026271e+00	0	0
2785469	2.002000e+00	-2.281731e+01	2.601713e+00	0	0
2787422	2.002000e+00	-2.898246e+01	3.195132e+00	0	0
2789375	2.002000e+00	-5.839786e+01	3.721160e+00	0	0
2791328	2.002335e+00	-7.261950e+01	3.904400e+00	0	0
2793281	2.003000e+00	-7.444536e+01	3.866134e+00	0	0
2795234	2.003000e+00	-8.925317e+01	3.880424e+00	0	0
2797188	2.003000e+00	-9.419779e+01	3.803365e+00	0	0
2799141	2.003000e+00	-9.551711e+01	3.520531e+00	0	0
2801094	2.003000e+00	-9.634589e+01	3.229058e+00	0	0
2803047	2.002664e+00	-9.413861e+01	2.961353e+00	0	0
2805000	2.002000e+00	-9.060306e+01	2.720055e+00	0	0
2806953	2.002000e+00	-9.258349e+01	2.498101e+00	0	0
2808906	2.002000e+00	-1.006389e+02	2.338985e+00	0	0
2810859	2.002000e+00	-1.145225e+02	2.361633e+00	0	0
2812813	2.002000e+00	-1.023825e+02	2.485603e+00	0	0
2814766	2.002000e+00	-1.206221e+02	2.565941e+00	0	0
2816719	2.002000e+00	-1.339509e+02	2.623408e+00	0	0
2818672	2.002000e+00	-1.383328e+02	2.648373e+00	0	0
2820625	2.002000e+00	-1.409660e+02	2.635972e+00	0	0
2822578	2.002000e+00	-1.544652e+02	2.586982e+00	0	0
2824531	2.002000e+00	-1.563917e+02	2.522502e+00	0	0
2826484	2.002000e+00	-1.401910e+02	2.455519e+00	0	0
2828438	2.002000e+00	-1.247980e+02	2.383600e+00	0	0
2830391	2.002000e+00	-1.173454e+02	2.310554e+00	0	0
2832344	2.002000e+00	-1.165760e+02	2.225491e+00	0	0
2834297	2.002000e+00	-1.314511e+02	2.173610e+00	0	0
2836250	2.002000e+00	-1.408866e+02	2.204381e+00	0	0
2838203	2.002000e+00	-1.612466e+02	2.234938e+00	0	0
2840156	2.002000e+00	-1.754641e+02	2.266282e+00	0	0
2842109	2.002000e+00	-1.810143e+02	2.296922e+00	0	0
2844063	2.002000e+00	-1.939995e+02	2.327356e+00	0	0
2846016	2.002000e+00	-1.797364e+02	2.357506e+00	0	0
2847969	2.002000e+00	-1.663235e+02	2.387489e+00	0	0
2849922	2.002000e+00	-1.434712e+02	2.417342e+00	0	0
2851875	2.002000e+00	-1.539171e+02	2.447208e+00	0	0
2853828	2.002000e+00	-1.560504e+02	2.476875e+00	0	0
2855781	2.002000e+00	-1.677211e+02	2.507557e+00	0	0
2857734	2.002000e+00	-1.761754e+02	2.541525e+00	0	0
2859688	2.002000e+00	-1.971033e+02	2.577017e+00	0	0
2861641	2.002000e+00	-2.003326e+02	2.612596e+00	0	0
2863594	2.002000e+00	-1.792557e+02	2.648573e+00	0	0
2865547	2.002000e+00	-1.764607e+02	2.684954e+00	0	0
2867500	2.002000e+00	-1.672336e+02	2.721821e+00	0	0
2869453	2.002000e+00	-1.691920e+02	2.759235e+00	0	0
2871406	2.002000e+00	-1.628092e+02	2.797262e+00	0	0
2873359	2.002000e+00	-1.636963e+02	2.835970e+00	0	0
2875313	2.002000e+00	-1.715840e+02	2.875443e+00	0	0
2877266	2.002000e+00	-1.683680e+02	2.915707e+00	0	0
2879219	2.002000e+00	-1.664360e+02	2.956847e+00	0	0
2881172	2.002000e+00	-1.779832e+02	2.998934e+00	0	0
2883125	2.002000e+00	-1.816118e+02	3.042016e+00	0	0
2885078	2.002000e+00	-1.856624e+02	3.086218e+00	0	0
2887031	2.002000e+00	-2.096620e+02	3.131393e+00	0	0
2888984	2.002000e+00	-2.177592e+02	3.178486e+00	0	0
2890938	2.002000e+00	-1.932575e+02	3.229561e+00	0	0
2892891	2.002000e+00	-1.922098e+02	3.288841e+00	0	0
2894844	2.002000e+00	-1.927423e+02	3.362628e+00	0	0
2896797	2.002000e+00	-1.845550e+02	3.447012e+00	0	0
2898750	2.002000e+00	-1.739590e+02	3.534857e+00	0	0
2900703	2.002000e+00	-1.894539e+02	3.586796e+00	0	0
2902656	2.002000e+00	-2.062600e+02	3.591769e+00	0	0
2904609	2.002000e+00	-1.699105e+02	3.604623e+00	0	0
2906563	2.002000e+00	-1.479739e+02	3.615382e+00	0	0
2908516	2.002000e+00	-1.265020e+02	3.626709e+00	0	0
2910469	2.002000e+00	-1.071108e+02	3.637892e+00	0	0
2912422	2.002000e+00	-1.269170e+02	3.649124e+00	0	0
2914375	2.002000e+00	-1.379300e+02	3.660353e+00	0	0
2916328	2.002000e+00	-1.464915e+02	3.671592e+00	0	0
2918281	2.002000e+00	-1.618427e+02	3.682838e+00	0	0
2920234	2.002000e+00	-1.771736e+02	3.694092e+00	0	0
2922188	2.002000e+00	-1.746555e+02	3.705359e+00	0	0
2924141	2.002000e+00	-1.676962e+02	3.716627e+00	0	0
2926094	2.002000e+00	-1.655398e+02	3.727902e+00	0	0
2928047	2.002000e+00	-1.568768e+02	3.739185e+00	0	0
2930000	2.002000e+00	-1.392168e+02	3.750474e+00	0	0
2931953	2.002000e+00	-1.373906e+02	3.761770e+00	0	0
2933906	2.002000e+00	-1.491962e+02	3.773072e+00	0	0
2935859	2.002000e+00	-1.368993e+02	3.784381e+00	0	0
2937813	2.002000e+00	-1.405739e+02	3.795702e+00	0	0
2939766	2.002000e+00	-1.502728e+02	3.807024e+00	0	0
2941719	2.002000e+00	-1.607013e+02	3.818353e+00	0	0
2943672	2.002000e+00	-1.841714e+02	3.829680e+00	0	0
2945625	2.002000e+00	-1.746296e+02	3.841044e+00	0	0
2947578	2.002000e+00	-1.683616e+02	3.852299e+00	0	0
2949531	2.002000e+00	-1.834425e+02	3.863938e+00	0	0
2951484	2.002000e+00	-1.627012e+02	3.871181e+00	0	0
2953438	2.002000e+00	-1.773890e+02	3.871649e+00	0	0
2955391	2.002000e+00	-1.830271e+02	3.873245e+00	0	0
2957344	2.002000e+00	-1.744253e+02	3.874510e+00	0	0
2959297	2.002000e+00	-1.816596e+02	3.875834e+00	0	0
2961250	2.002000e+00	-1.759761e+02	3.877113e+00	0	0
2963203	2.002000e+00	-1.802019e+02	3.878375e+00	0	0
2965156	2.002000e+00	-1.605620e+02	3.879612e+00	0	0
2967109	2.002000e+00	-1.495888e+02	3.880827e+00	0	0
2969063	2.002000e+00	-1.520802e+02	3.882020e+00	0	0
2971016	2.002000e+00	-1.410050e+02	3.883189e+00	0	0
2972969	2.002000e+00	-1.522634e+02	3.884335e+00	0	0
2974922	2.002000e+00	-1.585834e+02	3.885459e+00	0	0
2976875	2.002000e+00	-1.752982e+02	3.886559e+00	0	0
2978828	2.002000e+00	-1.745082e+02	3.887637e+00	0	0
2980781	2.002000e+00	-1.920354e+02	3.888692e+00	0	0
2982734	2.002000e+00	-2.039459e+02	3.889724e+00	0	0
2984688	2.002000e+00	-2.024729e+02	3.890734e+00	0	0
2986641	2.002000e+00	-2.153354e+02	3.891721e+00	0	0
2988594	2.002000e+00	-1.925434e+02	3.892685e+00	0	0
2990547	2.002000e+00	-1.881914e+02	3.893627e+00	0	0
2992500	2.002000e+00	-1.810976e+02	3.894546e+00	0	0
2994453	2.002000e+00	-1.593805e+02	3.895442e+00	0	0
2996406	2.002000e+00	-1.640616e+02	3.896315e+00	0	0
2998359	2.002000e+00	-1.623011e+02	3.897168e+00	0	0
3000313	2.002000e+00	-1.499707e+02	3.897993e+00	0	0
3002266	2.002000e+00	-1.639347e+02	3.898814e+00	0	0
3004219	2.002000e+00	-1.723887e+02	3.899541e+00	0	0
3006172	2.002000e+00	-1.848308e+02	3.900514e+00	0	0
3008125	2.002000e+00	-1.624081e+02	3.900460e+00	0	0
3010078	2.002000e+00	-1.332028e+02	3.904134e+00	0	0
3012031	2.002000e+00	-1.362306e+02	3.893788e+00	0	0
3013984	2.002000e+00	-1.324399e+02	3.942940e+00	0	0
3015938	2.002000e+00	-1.156962e+02	4.154810e+00	0	0
3017891	2.002000e+00	-1.197429e+02	4.315272e+00	0	0
3019844	2.002000e+00	-1.136519e+02	4.278403e+00	0	0
3021797	2.002000e+00	-1.136502e+02	4.061949e+00	0	0
3023750	2.002000e+00	-9.440066e+01	3.883045e+00	0	0
3025703	2.001648e+00	-7.780997e+01	3.912353e+00	0	0
3027656	2.001000e+00	-6.339243e+01	3.901063e+00	0	0
3029609	2.001352e+00	-3.458571e+01	3.898298e+00	0	0
3031563	2.001647e+00	-2.779874e+01	3.893045e+00	0	0
3033516	2.001353e+00	-2.643966e+01	3.888421e+00	0	0
3035469	2.002000e+00	-2.057475e+01	3.883637e+00	0	0
3037422	2.002000e+00	-4.237921e+01	3.878728e+00	0	0
3039375	2.001647e+00	-4.584806e+01	3.874335e+00	0	0
3041328	2.001353e+00	-3.043764e+01	3.867865e+00	0	0
3043281	2.002000e+00	-3.151797e+01	3.869046e+00	0	0
3045234	2.002000e+00	-3.187144e+01	3.839375e+00	0	0
3047188	2.001646e+00	-1.948743e+01	3.816078e+00	0	0
3049141	2.001000e+00	7.222892e+00	3.856236e+00	0	0
3051094	2.001354e+00	4.098155e+00	3.842744e+00	0	0
3053047	2.002000e+00	1.813363e+01	3.840059e+00	0	0
3055000	2.001646e+00	1.515799e+01	3.834365e+00	0	0
3056953	2.001000e+00	2.835595e+01	3.829759e+00	0	0
3058906	2.001355e+00	2.432541e+01	3.823675e+00	0	0
3060859	2.001645e+00	1.575316e+01	3.822275e+00	0	0
3062813	2.001000e+00	3.934864e+00	3.799684e+00	0	0
3064766	2.001000e+00	8.943159e-01	3.656734e+00	0	0
3066719	2.001000e+00	1.411594e+01	3.428595e+00	0	0
3068672	2.001000e+00	1.286776e+01	3.235260e+00	0	0
3070625	2.001000e+00	1.088124e+01	3.058339e+00	0	0
3072578	2.001000e+00	2.760077e+01	2.905869e+00	0	0
3074531	2.001000e+00	4.011051e+01	2.779275e+00	0	0
3076484	2.001000e+00	2.045886e+01	2.679700e+00	0	0
3078438	2.001000e+00	1.388234e+01	2.600124e+00	0	0
3080391	2.001000e+00	-1.388931e+01	2.533010e+00	0	0
3082344	2.001000e+00	-4.650700e+01	2.476323e+00	0	0
3084297	2.001000e+00	-6.683303e+01	2.429225e+00	0	0
3086250	2.001000e+00	-8.454564e+01	2.391087e+00	0	0
3088203	2.001000e+00	-8.639031e+01	2.362914e+00	0	0
3090156	2.001000e+00	-1.132224e+02	2.346753e+00	0	0
3092109	2.001000e+00	-1.408606e+02	2.344074e+00	0	0
3094063	2.001000e+00	-1.449096e+02	2.354181e+00	0	0
3096016	2.001000e+00	-1.692646e+02	2.378439e+00	0	0
3097969	2.001000e+00	-1.785343e+02	2.408366e+00	0	0
3099922	2.001000e+00	-1.856545e+02	2.472585e+00	0	0
3101875	2.001000e+00	-2.053987e+02	2.461125e+00	0	0
3103828	2.001000e+00	-2.125897e+02	2.812775e+00	0	0
3105781	2.001000e+00	-2.072373e+02	3.396366e+00	0	0
3107734	2.001000e+00	-1.974764e+02	3.042530e+00	0	0
3109688	2.001000e+00	-1.958918e+02	2.788396e+00	0	0
3111641	2.001000e+00	-2.228101e+02	2.945375e+00	0	0
3113594	2.001000e+00	-2.169931e+02	3.032233e+00	0	0
3115547	2.001000e+00	-2.442435e+02	3.163005e+00	0	0
3117500	2.001000e+00	-2.641933e+02	3.207418e+00	0	0
3119453	2.001000e+00	-2.555717e+02	2.742750e+00	0	0
3121406	2.001000e+00	-2.537581e+02	2.466987e+00	0	0
3123359	2.001000e+00	-2.425249e+02	2.859025e+00	0	0
3125313	2.001000e+00	-2.777858e+02	3.158247e+00	0	0
3127266	2.001000e+00	-2.678773e+02	3.585737e+00	0	0
3129219	2.001000e+00	-2.649541e+02	3.629665e+00	0	0
3131172	2.001000e+00	-2.866784e+02	3.620855e+00	0	0
3133125	2.001000e+00	-3.112093e+02	3.615734e+00	0	0
3135078	2.001000e+00	-3.142025e+02	3.609593e+00	0	0
3137031	2.001000e+00	-3.054209e+02	3.603714e+00	0	0
3138984	2.001000e+00	-2.955612e+02	3.597679e+00	0	0
3140938	2.001000e+00	-2.941157e+02	3.591872e+00	0	0
3142891	2.001000e+00	-2.807194e+02	3.585170e+00	0	0
3144844	2.001000e+00	-2.362735e+02	3.586592e+00	0	0
3146797	2.001000e+00	-2.189523e+02	3.814870e+00	0	0
3148750	2.001000e+00	-1.984289e+02	4.277365e+00	0	0
3150703	2.001000e+00	-1.995275e+02	4.622880e+00	0	0
3152656	2.001000e+00	-2.085678e+02	4.891774e+00	0	0
3154609	2.001000e+00	-2.178188e+02	5.080898e+00	0	0
3156563	2.001000e+00	-2.292172e+02	5.197235e+00	0	0
3158516	2.001000e+00	-2.512259e+02	5.235676e+00	0	0
3160469	2.001000e+00	-2.779622e+02	5.200226e+00	0	0
3162422	2.001000e+00	-2.844582e+02	5.088275e+00	0	0
3164375	2.001000e+00	-2.696880e+02	4.904499e+00	0	0
3166328	2.001000e+00	-2.581283e+02	4.657521e+00	0	0
3168281	2.001000e+00	-2.477347e+02	4.352870e+00	0	0
3170234	2.001000e+00	-2.276450e+02	4.013206e+00	0	0
3172188	2.001000e+00	-2.639192e+02	3.678971e+00	0	0
3174141	2.001000e+00	-3.036334e+02	3.516195e+00	0	0
3176094	2.001000e+00	-3.225767e+02	3.534600e+00	0	0
3178047	2.001000e+00	-3.444473e+02	3.521935e+00	0	0
3180000	2.001000e+00	-3.450151e+02	3.517152e+00	0	0
3181953	2.001000e+00	-3.368437e+02	3.511761e+00	0	0
3183906	2.001000e+00	-2.782587e+02	3.500764e+00	0	0
3185859	2.001000e+00	-1.767727e+02	3.514510e+00	0	0
3187813	2.001000e+00	-4.775583e+01	3.521491e+00	0	0
3189766	2.001000e+00	7.070965e+01	3.480818e+00	0	0
3191719	2.001000e+00	2.056736e+02	3.479248e+00	0	0
3193672	2.001000e+00	4.118625e+02	3.478215e+00	0	0
3195625	2.001000e+00	6.799258e+02	3.445707e+00	0	0
3197578	2.001000e+00	9.269286e+02	3.538448e+00	0	0
3199531	2.001000e+00	1.183190e+03	3.121184e+00	0	0
3201484	2.001000e+00	1.422650e+03	2.744128e+00	0	0
3203438	2.001000e+00	1.620916e+03	3.429770e+00	0	0
3205391	2.001000e+00	1.700827e+03	3.426944e+00	0	0
3207344	2.001000e+00	1.641971e+03	3.426804e+00	0	0
3209297	2.001000e+00	1.476296e+03	3.432501e+00	0	0
3211250	2.001000e+00	1.149883e+03	3.370608e+00	0	0
3213203	2.001000e+00	8.810768e+02	3.606962e+00	0	0
3215156	2.001000e+00	7.014358e+02	4.323147e+00	0	0
3217109	2.001000e+00	5.405481e+02	4.220528e+00	0	0
3219063	2.001000e+00	3.473312e+02	3.535917e+00	0	0
3221016	2.001000e+00	1.090152e+02	3.365266e+00	0	0
3222969	2.001000e+00	-8.449783e+01	3.379436e+00	0	0
3224922	2.001000e+00	-2.102174e+02	3.366569e+00	0	0
3226875	2.001000e+00	-2.867950e+02	3.362686e+00	0	0
3228828	2.001000e+00	-3.116985e+02	3.294609e+00	0	0
3230781	2.001000e+00	-3.489315e+02	3.177903e+00	0	0
3232734	2.001000e+00	-3.079379e+02	2.348512e+00	0	0
3234688	2.001000e+00	-3.136791e+02	1.068116e+00	0	0
3236641	2.001000e+00	-3.125694e+02	9.282245e-01	0	0
3238594	2.001000e+00	-2.813106e+02	1.348434e+00	0	0
3240547	2.001000e+00	-2.801555e+02	2.152434e+00	0	0
3242500	2.001000e+00	-2.436446e+02	2.629431e+00	0	0
3244453	2.001000e+00	-2.488308e+02	2.453531e+00	0	0
3246406	2.001000e+00	-2.310696e+02	2.407790e+00	0	0
3248359	2.001000e+00	-2.023249e+02	2.334158e+00	0	0
3250313	2.001000e+00	-1.895750e+02	2.302475e+00	0	0
3252266	2.001000e+00	-2.183798e+02	2.193551e+00	0	0
3254219	2.001000e+00	-2.421828e+02	2.478914e+00	0	0
3256172	2.001000e+00	-2.479179e+02	4.316546e+00	0	0
3258125	2.001000e+00	-2.654351e+02	6.608325e+00	0	0
3260078	2.001000e+00	-2.530416e+02	7.771962e+00	0	0
3262031	2.001000e+00	-2.640142e+02	8.080958e+00	0	0
3263984	2.001000e+00	-2.618924e+02	7.588989e+00	0	0
3265938	2.001000e+00	-2.235407e+02	5.885266e+00	0	0
3267891	2.001000e+00	-2.002490e+02	3.314618e+00	0	0
3269844	2.001000e+00	-1.814994e+02	2.251563e+00	0	0
3271797	2.001000e+00	-1.902329e+02	2.671053e+00	0	0
3273750	2.001000e+00	-1.738653e+02	1.969599e+00	0	0
3275703	2.001000e+00	-1.728299e+02	-1.100510e+00	0	0
3277656	2.001000e+00	-1.967003e+02	-4.087643e+00	0	0
3279609	2.001000e+00	-2.147608e+02	-5.264309e+00	0	0
3281563	2.001000e+00	-2.138606e+02	-4.800154e+00	0	0
3283516	2.001000e+00	-2.023142e+02	-2.321911e+00	0	0
3285469	2.001000e+00	-1.886894e+02	1.485291e+00	0	0
3287422	2.001000e+00	-1.807104e+02	3.429655e+00	0	0
3289375	2.001000e+00	-1.416490e+02	2.963046e+00	0	0
3291328	2.001000e+00	-1.489713e+02	3.737301e+00	0	0
3293281	2.001000e+00	-1.906373e+02	6.999216e+00	0	0
3295234	2.001000e+00	-1.961711e+02	1.041778e+01	0	0
3297188	2.001000e+00	-1.864208e+02	1.162454e+01	0	0
3299141	2.001000e+00	-2.152602e+02	1.100315e+01	0	0
3301094	2.001000e+00	-2.102924e+02	8.708277e+00	0	0
3303047	2.001000e+00	-2.056210e+02	5.022190e+00	0	0
3305000	2.001000e+00	-2.364691e+02	2.794659e+00	0	0
3306953	2.000627e+00	-2.302367e+02	3.225961e+00	0	0
3308906	2.000000e+00	-2.043442e+02	2.765022e+00	0	0
3310859	2.000000e+00	-1.717116e+02	2.033094e-01	0	0
3312813	2.000000e+00	-1.734385e+02	-3.020318e+00	0	0
3314766	2.000374e+00	-1.713711e+02	-4.021714e+00	0	0
3316719	2.001000e+00	-1.882754e+02	-4.056124e+00	0	0
3318672	2.001000e+00	-2.223327e+02	-3.542863e+00	0	0
3320625	2.001000e+00	-2.390946e+02	-2.476110e+00	0	0
3322578	2.001000e+00	-2.410128e+02	-9.554774e-01	0	0
3324531	2.000626e+00	-2.308627e+02	1.086905e+00	0	0
3326484	2.000000e+00	-2.052958e+02	2.769996e+00	0	0
3328438	2.000000e+00	-1.842652e+02	3.043495e+00	0	0
3330391	2.000000e+00	-1.673093e+02	3.004009e+00	0	0
3332344	2.000375e+00	-1.602869e+02	3.016522e+00	0	0
3334297	2.000625e+00	-1.644689e+02	2.967194e+00	0	0
3336250	2.000375e+00	-1.727426e+02	3.155498e+00	0	0
3338203	2.000625e+00	-1.596614e+02	4.417749e+00	0	0
3340156	2.000000e+00	-1.650699e+02	6.122932e+00	0	0
3342109	2.000000e+00	-1.423990e+02	7.055810e+00	0	0
3344063	2.000000e+00	-1.083327e+02	7.385693e+00	0	0
3346016	2.000000e+00	-1.159989e+02	6.948062e+00	0	0
3347969	2.000000e+00	-1.184031e+02	4.664240e+00	0	0
3349922	2.000000e+00	-1.032787e+02	2.677505e+00	0	0
3351875	2.000000e+00	-9.448105e+01	3.017986e+00	0	0
3353828	2.000000e+00	-1.075744e+02	2.906971e+00	0	0
3355781	2.000000e+00	-1.003663e+02	2.963363e+00	0	0
3357734	2.000376e+00	-1.262416e+02	2.304289e+00	0	0
3359688	2.000623e+00	-1.413086e+02	1.628154e+00	0	0
3361641	2.000000e+00	-1.336671e+02	2.477149e+00	0	0
3363594	2.000000e+00	-1.267988e+02	2.970569e+00	0	0
3365547	2.000000e+00	-1.044293e+02	2.882773e+00	0	0
3367500	2.000000e+00	-1.099590e+02	2.898756e+00	0	0
3369453	2.000000e+00	-1.202510e+02	2.886987e+00	0	0
3371406	2.000000e+00	-1.384796e+02	2.882711e+00	0	0
3373359	2.000000e+00	-1.215764e+02	2.876486e+00	0	0
3375313	2.000378e+00	-1.325390e+02	2.870842e+00	0	0
3377266	2.000622e+00	-1.291591e+02	2.865107e+00	0	0
3379219	2.000000e+00	-9.219637e+01	2.859462e+00	0	0
3381172	2.000000e+00	-1.063972e+02	2.853859e+00	0	0
3383125	2.000000e+00	-1.151116e+02	2.848316e+00	0	0
3385078	2.000000e+00	-1.077855e+02	2.842821e+00	0	0
3387031	2.000000e+00	-1.011457e+02	2.837421e+00	0	0
3388984	2.000000e+00	-7.621860e+01	2.832291e+00	0	0
3390938	2.000000e+00	-2.698398e+01	2.827501e+00	0	0
3392891	2.000000e+00	7.220734e+00	2.823086e+00	0	0
3394844	2.000000e+00	1.362340e+01	2.819207e+00	0	0
3396797	2.000000e+00	5.408379e+01	2.815954e+00	0	0
3398750	2.000000e+00	6.807663e+01	2.813262e+00	0	0
3400703	2.000000e+00	5.536706e+01	2.811305e+00	0	0
3402656	2.000000e+00	6.633347e+01	2.809417e+00	0	0
3404609	2.000000e+00	5.413674e+01	2.810052e+00	0	0
3406563	2.000000e+00	2.952546e+01	2.804028e+00	0	0
3408516	2.000000e+00	5.193544e+01	2.825600e+00	0	0
3410469	2.000000e+00	6.860556e+01	2.737930e+00	0	0
3412422	2.000000e+00	4.572052e+01	2.689564e+00	0	0
3414375	2.000000e+00	2.905137e+01	2.835067e+00	0	0
3416328	2.000000e+00	4.301742e+01	2.809808e+00	0	0
3418281	2.000000e+00	5.734343e+01	2.818933e+00	0	0
3420234	2.000000e+00	4.300796e+01	2.825945e+00	0	0
3422188	2.000000e+00	7.714869e+01	2.838910e+00	0	0
3424141	2.000000e+00	9.604150e+01	4.185318e+00	0	0
3426094	2.000000e+00	1.006240e+02	6.351589e+00	0	0
3428047	2.000000e+00	1.542131e+02	6.538906e+00	0	0
3430000	2.000000e+00	1.676542e+02	4.538968e+00	0	0
3431953	2.000000e+00	1.801296e+02	2.659839e+00	0	0
3433906	2.000000e+00	2.113235e+02	2.929349e+00	0	0
3435859	2.000000e+00	1.959492e+02	2.817584e+00	0	0
3437813	2.000000e+00	1.816680e+02	3.013927e+00	0	0
3439766	2.000000e+00	1.482103e+02	2.072218e+00	0	0
3441719	2.000000e+00	1.335402e+02	-1.400176e-01	0	0
3443672	2.000000e+00	1.104111e+02	-7.281743e-01	0	0
3445625	2.000000e+00	1.123684e+02	3.450295e-01	0	0
3447578	2.000000e+00	1.584521e+02	1.576950e+00	0	0
3449531	2.000000e+00	2.268344e+02	1.982927e+00	0	0
3451484	2.000000e+00	2.950416e+02	2.786913e+00	0	0
3453438	2.000000e+00	3.077034e+02	2.979784e+00	0	0
3455391	2.000000e+00	3.245930e+02	2.964544e+00	0	0
3457344	2.000000e+00	3.322545e+02	3.002525e+00	0	0
3459297	2.000000e+00	3.293840e+02	3.080184e+00	0	0
3461250	2.000000e+00	3.681561e+02	3.221074e+00	0	0
3463203	2.000000e+00	3.538836e+02	4.055634e+00	0	0
3465156	2.000000e+00	3.369047e+02	5.368530e+00	0	0
3467109	2.000000e+00	3.171393e+02	6.065527e+00	0	0
3469063	2.000000e+00	3.015333e+02	6.243399e+00	0	0
3471016	2.000000e+00	3.016260e+02	5.851874e+00	0	0
3472969	2.000000e+00	2.897233e+02	5.236857e+00	0	0
3474922	2.000000e+00	3.001533e+02	4.620810e+00	0	0
3476875	2.000000e+00	2.930095e+02	4.019426e+00	0	0
3478828	2.000000e+00	2.773655e+02	3.775309e+00	0	0
3480781	2.000000e+00	2.267546e+02	3.882813e+00	0	0
3482734	2.000000e+00	2.105372e+02	3.927260e+00	0	0
3484688	2.000000e+00	2.085765e+02	3.988174e+00	0	0
3486641	2.000000e+00	1.743345e+02	4.044129e+00	0	0
3488594	2.000000e+00	1.460594e+02	4.100815e+00	0	0
3490547	2.000000e+00	1.204390e+02	4.156649e+00	0	0
3492500	2.000000e+00	8.148142e+01	4.211990e+00	0	0
3494453	2.000000e+00	2.228285e+01	4.266675e+00	0	0
3496406	2.000000e+00	-1.295847e+01	4.320683e+00	0	0
3498359	2.000000e+00	-5.294393e+01	4.373953e+00	0	0
3500313	2.000000e+00	-6.836396e+01	4.426463e+00	0	0
3502266	2.000000e+00	-8.664304e+01	4.478106e+00	0	0
3504219	2.000000e+00	-1.451301e+02	4.528857e+00	0	0
3506172	2.000000e+00	-1.655918e+02	4.578666e+00	0	0
3508125	2.000000e+00	-1.753907e+02	4.627477e+00	0	0
3510078	2.000000e+00	-1.934946e+02	4.675249e+00	0	0
3512031	2.000000e+00	-1.925713e+02	4.721895e+00	0	0
3513984	2.000000e+00	-1.808107e+02	4.767493e+00	0	0
3515938	2.000000e+00	-1.726572e+02	4.811510e+00	0	0
3517891	2.000000e+00	-1.774566e+02	4.855171e+00	0	0
3519844	2.000000e+00	-2.323776e+02	4.892338e+00	0	0
3521797	2.000000e+00	-2.622152e+02	4.943799e+00	0	0
3523750	2.000000e+00	-2.639516e+02	4.921160e+00	0	0
3525703	2.000000e+00	-2.586630e+02	5.066172e+00	0	0
3527656	2.000000e+00	-2.468702e+02	4.175696e+00	0	0
3529609	2.000000e+00	-2.089750e+02	1.785413e+00	0	0
3531563	2.000000e+00	-1.973714e+02	-8.399881e-02	0	0
3533516	2.000000e+00	-1.978556e+02	-1.724604e+00	0	0
3535469	2.000000e+00	-1.956637e+02	-3.075382e+00	0	0
3537422	2.000000e+00	-2.053457e+02	-3.633126e+00	0	0
3539375	2.000000e+00	-2.369994e+02	-2.345198e+00	0	0
3541328	2.000000e+00	-2.460211e+02	1.650696e+00	0	0
3543281	2.000000e+00	-2.826247e+02	4.705022e+00	0	0
3545234	2.000000e+00	-2.677056e+02	4.206329e+00	0	0
3547188	2.000000e+00	-2.184203e+02	4.601525e+00	0	0
3549141	2.000000e+00	-2.248884e+02	7.627870e+00	0	0
3551094	2.000000e+00	-1.831432e+02	1.224125e+01	0	0
3553047	2.000000e+00	-1.952760e+02	1.476551e+01	0	0
3555000	2.000000e+00	-2.151487e+02	1.536951e+01	0	0
3556953	2.000000e+00	-2.363979e+02	1.355351e+01	0	0
3558906	2.000000e+00	-2.851510e+02	8.791958e+00	0	0
3560859	2.000000e+00	-3.378957e+02	4.315829e+00	0	0
3562813	2.000000e+00	-3.499243e+02	4.053117e+00	0	0
3564766	2.000000e+00	-3.414201e+02	2.634941e+00	0	0
3566719	2.000000e+00	-3.505831e+02	-2.721590e+00	0	0
3568672	2.000000e+00	-3.577116e+02	-7.138268e+00	0	0
3570625	2.000000e+00	-3.147253e+02	-7.967095e+00	0	0
3572578	2.000000e+00	-3.260260e+02	-6.174178e+00	0	0
3574531	2.000000e+00	-3.678706e+02	-7.467909e-01	0	0
3576484	2.000000e+00	-3.281670e+02	3.815725e+00	0	0
3578438	2.000000e+00	-3.222056e+02	3.013786e+00	0	0
3580391	2.000000e+00	-3.016607e+02	4.603895e+00	0	0
3582344	2.000000e+00	-2.884159e+02	9.042969e+00	0	0
3584297	2.000000e+00	-3.036360e+02	1.167903e+01	0	0
3586250	2.000000e+00	-2.755128e+02	1.148177e+01	0	0
3588203	2.000000e+00	-2.582847e+02	9.264756e+00	0	0
3590156	2.000000e+00	-2.704433e+02	5.513571e+00	0	0
3592109	2.000000e+00	-3.182491e+02	2.883881e+00	0	0
3594063	2.000000e+00	-2.997570e+02	2.977702e+00	0	0
3596016	2.000000e+00	-2.714324e+02	2.739366e+00	0	0
3597969	2.000000e+00	-2.772515e+02	1.212564e+00	0	0
3599922	2.000000e+00	-2.868694e+02	-9.881795e-01	0	0
3601875	2.000000e+00	-3.156432e+02	-4.066737e-01	0	0
3603828	2.000000e+00	-3.075695e+02	1.826550e+00	0	0
3605781	2.000000e+00	-3.222585e+02	3.133230e+00	0	0
3607734	2.000000e+00	-3.215552e+02	2.208021e+00	0	0
3609688	2.000000e+00	-2.703898e+02	9.084969e-01	0	0
3611641	2.000000e+00	-2.438408e+02	4.566684e-01	0	0
3613594	2.000000e+00	-2.550293e+02	1.206393e+00	0	0
3615547	2.000000e+00	-2.504965e+02	1.013190e+00	0	0
3617500	2.000000e+00	-2.843608e+02	2.664178e-01	0	0
3619453	2.000000e+00	-3.056619e+02	9.878667e-01	0	0
3621406	2.000000e+00	-2.692126e+02	2.364969e+00	0	0
3623359	2.000000e+00	-2.883338e+02	3.178020e+00	0	0
3625313	2.000000e+00	-3.056903e+02	2.508990e+00	0	0
3627266	2.000000e+00	-3.214472e+02	4.573734e-01	0	0
3629219	2.000000e+00	-3.100242e+02	-7.820369e-01	0	0
3631172	2.000000e+00	-2.416585e+02	1.237791e+00	0	0
3633125	2.000000e+00	-2.597638e+02	3.374829e+00	0	0
3635078	2.000000e+00	-2.671994e+02	4.260136e+00	0	0
3637031	2.000000e+00	-2.542549e+02	5.823404e+00	0	0
3638984	2.000000e+00	-3.301856e+02	9.019986e+00	0	0
3640938	2.000000e+00	-4.097986e+02	1.127752e+01	0	0
3642891	2.000000e+00	-4.068097e+02	1.078353e+01	0	0
3644844	2.000000e+00	-3.392874e+02	6.911366e+00	0	0
3646797	2.000000e+00	-2.896396e+02	3.347264e+00	0	0
3648750	2.000000e+00	-2.377253e+02	3.202243e+00	0	0
3650703	2.000000e+00	-2.131666e+02	1.624637e+00	0	0
3652656	2.000000e+00	-2.451108e+02	-2.080311e+00	0	0
3654609	2.000000e+00	-2.639599e+02	-5.382970e+00	0	0
3656563	2.000000e+00	-2.682188e+02	-5.828996e+00	0	0
3658516	2.000398e+00	-2.649058e+02	-4.723168e+00	0	0
3660469	2.000601e+00	-2.517898e+02	-2.259306e+00	0	0
3662422	2.000000e+00	-2.448010e+02	1.739153e-01	0	0
3664375	2.000000e+00	-2.324710e+02	7.285390e-01	0	0
3666328	2.000000e+00	-2.530709e+02	6.766375e-01	0	0
3668281	2.000000e+00	-2.797784e+02	6.375472e-01	0	0
3670234	2.000000e+00	-2.825171e+02	1.016385e+00	0	0
3672188	2.000000e+00	-3.256442e+02	2.552820e+00	0	0
3674141	2.000000e+00	-3.842860e+02	3.908611e+00	0	0
3676094	2.000000e+00	-4.083562e+02	4.372321e+00	0	0
3678047	2.000000e+00	-4.056417e+02	4.584711e+00	0	0
3680000	2.000000e+00	-3.880029e+02	4.543089e+00	0	0
3681953	2.000400e+00	-3.605442e+02	4.298173e+00	0	0
3683906	2.001000e+00	-2.865966e+02	3.962768e+00	0	0
3685859	2.001000e+00	-2.265961e+02	3.331447e+00	0	0
3687813	2.000599e+00	-1.397452e+02	2.361991e+00	0	0
3689766	2.000401e+00	-9.312166e+01	1.778502e+00	0	0
3691719	2.000599e+00	-8.957788e+01	1.437054e+00	0	0
3693672	2.000000e+00	-8.937620e+01	9.257226e-01	0	0
3695625	2.000401e+00	-1.018520e+02	4.594528e-01	0	0
3697578	2.001000e+00	-1.273469e+02	2.917766e-02	0	0
3699531	2.001000e+00	-1.747006e+02	-4.987395e-01	0	0
3701484	2.001000e+00	-1.847488e+02	-1.076572e+00	0	0
3703438	2.001000e+00	-1.853800e+02	-1.277409e+00	0	0
3705391	2.001000e+00	-1.780114e+02	-1.087517e+00	0	0
3707344	2.001000e+00	-1.877623e+02	-5.555347e-01	0	0
3709297	2.001000e+00	-1.910178e+02	1.430916e-01	0	0
3711250	2.001000e+00	-2.202004e+02	9.301394e-01	0	0
3713203	2.001000e+00	-1.841731e+02	1.766884e+00	0	0
3715156	2.001000e+00	-1.400263e+02	1.957993e+00	0	0
3717109	2.001000e+00	-9.284893e+01	1.611791e+00	0	0
3719063	2.001000e+00	-8.477827e+01	1.343949e+00	0	0
3721016	2.001000e+00	-9.745505e+01	1.082228e+00	0	0
3722969	2.001000e+00	-8.515617e+01	6.746203e-01	0	0
3724922	2.001000e+00	-9.622104e+01	8.924234e-01	0	0
3726875	2.001000e+00	-1.028133e+02	2.097686e+00	0	0
3728828	2.001000e+00	-5.961336e+01	3.027318e+00	0	0
3730781	2.001000e+00	1.863423e+01	3.693607e+00	0	0
3732734	2.001000e+00	3.358394e+01	3.971282e+00	0	0
3734688	2.001000e+00	1.798266e+01	3.766173e+00	0	0
3736641	2.001000e+00	-3.312131e+01	3.219409e+00	0	0
3738594	2.001000e+00	-7.540819e+01	2.628721e+00	0	0
3740547	2.001000e+00	-1.502594e+02	1.999674e+00	0	0
3742500	2.001000e+00	-1.844503e+02	1.368900e+00	0	0
3744453	2.001000e+00	-1.532284e+02	7.441269e-01	0	0
3746406	2.001000e+00	-1.681953e+02	2.157874e-01	0	0
3748359	2.001000e+00	-1.544818e+02	-1.995220e-01	0	0
3750313	2.001000e+00	-8.828480e+01	-8.480306e-01	0	0
3752266	2.001000e+00	-5.837605e+01	-8.648762e-01	0	0
3754219	2.001000e+00	-7.664335e+01	7.490716e-01	0	0
3756172	2.001000e+00	-6.811997e+01	2.091042e+00	0	0
3758125	2.001000e+00	-8.164421e+01	2.510467e+00	0	0
3760078	2.001000e+00	-1.295878e+02	3.149927e+00	0	0
3762031	2.001000e+00	-1.396672e+02	3.774943e+00	0	0
3763984	2.001000e+00	-1.621326e+02	4.432433e+00	0	0
3765938	2.001000e+00	-2.041880e+02	5.142198e+00	0	0
3767891	2.001000e+00	-2.134846e+02	5.312727e+00	0	0
3769844	2.001000e+00	-2.059459e+02	5.138553e+00	0	0
3771797	2.001000e+00	-2.132249e+02	6.024185e+00	0	0
3773750	2.001000e+00	-2.382281e+02	7.253354e+00	0	0
3775703	2.001000e+00	-2.802545e+02	7.716341e+00	0	0
3777656	2.001000e+00	-3.089994e+02	7.165455e+00	0	0
3779609	2.001000e+00	-3.104822e+02	5.736482e+00	0	0
3781563	2.001000e+00	-3.224457e+02	3.930481e+00	0	0
3783516	2.001000e+00	-3.347032e+02	1.563649e+00	0	0
3785469	2.001000e+00	-3.081785e+02	-4.511882e-01	0	0
3787422	2.001000e+00	-2.560505e+02	-1.338652e+00	0	0
3789375	2.001000e+00	-2.373559e+02	-1.798226e+00	0	0
3791328	2.001000e+00	-2.387184e+02	-1.943879e+00	0	0
3793281	2.001000e+00	-2.624433e+02	-2.137213e+00	0	0
3795234	2.001000e+00	-2.799158e+02	-2.323582e+00	0	0
3797188	2.001000e+00	-3.125203e+02	-2.471341e+00	0	0
3799141	2.001000e+00	-3.627397e+02	-3.727565e+00	0	0
3801094	2.001000e+00	-3.669942e+02	-6.014611e+00	0	0
3803047	2.001000e+00	-3.673453e+02	-7.533085e+00	0	0
3805000	2.001000e+00	-3.616940e+02	-8.432175e+00	0	0
3806953	2.001411e+00	-3.587998e+02	-8.336205e+00	0	0
3808906	2.002000e+00	-3.296511e+02	-6.168579e+00	0	0
3810859	2.002000e+00	-3.229654e+02	-3.964756e+00	0	0
3812813	2.002000e+00	-3.121215e+02	-4.012297e+00	0	0
3814766	2.002000e+00	-3.166096e+02	-4.954856e+00	0	0
3816719	2.002000e+00	-3.110206e+02	-4.035295e+00	0	0
3818672	2.002000e+00	-3.028683e+02	-2.163092e-01	0	0
3820625	2.002000e+00	-3.218937e+02	2.543872e+00	0	0
3822578	2.002000e+00	-3.195998e+02	3.894339e+00	0	0
3824531	2.002000e+00	-3.148339e+02	3.870468e+00	0	0
3826484	2.002000e+00	-3.252943e+02	9.435683e-01	0	0
3828438	2.002000e+00	-3.445519e+02	1.125144e+00	0	0
3830391	2.002000e+00	-3.533690e+02	7.180494e+00	0	0
3832344	2.002000e+00	-3.646069e+02	-9.556436e-02	0	0
3834297	2.002000e+00	-3.682670e+02	-1.082549e+01	0	0
3836250	2.002000e+00	-3.762261e+02	-5.228399e+00	0	0
3838203	2.002000e+00	-3.743023e+02	8.837395e+00	0	0
3840156	2.002000e+00	-3.858838e+02	2.851929e+01	0	0
3842109	2.002000e+00	-3.732799e+02	4.634792e+01	0	0
3844063	2.002000e+00	-3.737483e+02	6.951645e+01	0	0
3846016	2.002000e+00	-3.780603e+02	8.637932e+01	0	0
3847969	2.002000e+00	-3.673665e+02	6.010863e+01	0	0
3849922	2.002000e+00	-3.774583e+02	4.888078e+00	0	0
3851875	2.002000e+00	-3.849219e+02	-6.245572e+01	0	0
3853828	2.002000e+00	-3.668726e+02	-1.230488e+02	0	0
3855781	2.002000e+00	-2.982177e+02	-1.332350e+02	0	0
3857734	2.002000e+00	-2.230333e+02	-9.554860e+01	0	0
3859688	2.002000e+00	-1.116835e+02	-4.631045e+01	0	0
3861641	2.002000e+00	3.535035e+01	1.249764e+00	0	0
3863594	2.002000e+00	2.173183e+02	4.717308e+01	0	0
3865547	2.002000e+00	4.960105e+02	5.903908e+01	0	0
3867500	2.002000e+00	7.989361e+02	3.878810e+01	0	0
3869453	2.002000e+00	1.051262e+03	2.156092e+01	0	0
3871406	2.002000e+00	1.298536e+03	1.223512e+01	0	0
3873359	2.002000e+00	1.540813e+03	-3.760695e+00	0	0
3875313	2.002417e+00	1.692735e+03	-8.905971e+00	0	0
3877266	2.003000e+00	1.661595e+03	-9.966081e+00	0	0
3879219	2.002583e+00	1.508663e+03	-7.959092e+00	0	0
3881172	2.002417e+00	1.239577e+03	-5.757046e+00	0	0
3883125	2.002582e+00	9.649132e+02	-4.778008e-01	0	0
3885078	2.002418e+00	8.016276e+02	5.207565e+00	0	0
3887031	2.003000e+00	6.041863e+02	2.082687e+00	0	0
3888984	2.003000e+00	4.409999e+02	-1.746140e+00	0	0
3890938	2.003000e+00	1.778556e+02	-1.320492e+00	0	0
3892891	2.003000e+00	-8.210070e+01	6.958448e-01	0	0
3894844	2.003000e+00	-2.153086e+02	1.742700e+00	0	0
3896797	2.003000e+00	-3.608452e+02	8.291982e-01	0	0
3898750	2.003000e+00	-4.458911e+02	-2.599900e+00	0	0
3900703	2.003000e+00	-5.088418e+02	-7.076414e+00	0	0
3902656	2.003000e+00	-5.371114e+02	-9.063839e+00	0	0
3904609	2.003000e+00	-5.162615e+02	-7.947712e+00	0	0
3906563	2.003000e+00	-5.045493e+02	-9.703843e+00	0	0
3908516	2.003000e+00	-4.453927e+02	-1.418123e+01	0	0
3910469	2.003000e+00	-3.267490e+02	-1.615542e+01	0	0
3912422	2.003000e+00	-2.648615e+02	-1.578676e+01	0	0
3914375	2.003000e+00	-2.195828e+02	-1.269964e+01	0	0
3916328	2.003000e+00	-1.805723e+02	-7.534752e+00	0	0
3918281	2.003000e+00	-1.808500e+02	-3.993623e+00	0	0
3920234	2.003000e+00	-1.824213e+02	-3.358019e+00	0	0
3922188	2.003000e+00	-2.099700e+02	-5.678653e-01	0	0
3924141	2.003000e+00	-2.388705e+02	4.921948e+00	0	0
3926094	2.003000e+00	-2.436732e+02	9.600764e+00	0	0
3928047	2.003000e+00	-2.408501e+02	1.292008e+01	0	0
3930000	2.003000e+00	-2.473992e+02	1.448528e+01	0	0
3931953	2.003422e+00	-2.550367e+02	1.435253e+01	0	0
3933906	2.004000e+00	-2.582681e+02	1.278608e+01	0	0
3935859	2.004000e+00	-2.541228e+02	9.253325e+00	0	0
3937813	2.004000e+00	-2.608049e+02	3.200993e+00	0	0
3939766	2.004000e+00	-2.931138e+02	-1.431257e+00	0	0
3941719	2.004000e+00	-2.987439e+02	-1.313482e+00	0	0
3943672	2.004000e+00	-2.799507e+02	-3.765533e+00	0	0
3945625	2.004000e+00	-2.728816e+02	-1.091106e+01	0	0
3947578	2.004000e+00	-2.656663e+02	-1.776087e+01	0	0
3949531	2.004000e+00	-2.701358e+02	-2.210823e+01	0	0
3951484	2.004000e+00	-2.717205e+02	-2.360669e+01	0	0
3953438	2.004000e+00	-2.743239e+02	-2.228166e+01	0	0
3955391	2.004000e+00	-2.974103e+02	-1.838656e+01	0	0
3957344	2.004000e+00	-2.843973e+02	-1.126216e+01	0	0
3959297	2.004000e+00	-2.820684e+02	-3.901380e+00	0	0
3961250	2.004000e+00	-2.790815e+02	-2.130435e+00	0	0
3963203	2.004000e+00	-2.626756e+02	2.938037e+00	0	0
3965156	2.004000e+00	-2.774400e+02	1.395060e+01	0	0
3967109	2.004000e+00	-2.793562e+02	2.093971e+01	0	0
3969063	2.004000e+00	-2.826968e+02	2.383191e+01	0	0
3971016	2.004000e+00	-2.741161e+02	2.162576e+01	0	0
3972969	2.004000e+00	-2.731732e+02	1.536209e+01	0	0
3974922	2.004000e+00	-2.685211e+02	3.726749e+00	0	0
3976875	2.004426e+00	-2.385261e+02	-3.296195e+00	0	0
3978828	2.005000e+00	-2.338319e+02	-5.441683e+00	0	0
3980781	2.005000e+00	-2.500157e+02	-1.519550e+01	0	0
3982734	2.005000e+00	-2.762819e+02	-2.402156e+01	0	0
3984688	2.005000e+00	-2.667331e+02	-2.917371e+01	0	0
3986641	2.005000e+00	-2.491720e+02	-3.075557e+01	0	0
3988594	2.005000e+00	-2.242248e+02	-2.925491e+01	0	0
3990547	2.005000e+00	-1.941823e+02	-2.508861e+01	0	0
3992500	2.005000e+00	-1.959715e+02	-1.893031e+01	0	0
3994453	2.005000e+00	-1.938040e+02	-1.064319e+01	0	0
3996406	2.005000e+00	-1.806232e+02	-3.398220e+00	0	0
3998359	2.005000e+00	-2.037611e+02	-2.617782e+00	0	0
4000313	2.005000e+00	-1.995596e+02	1.648598e+00	0	0
4002266	2.005000e+00	-1.900821e+02	1.256491e+01	0	0
4004219	2.005000e+00	-2.031973e+02	2.039104e+01	0	0
4006172	2.005000e+00	-2.092417e+02	2.596527e+01	0	0
4008125	2.005000e+00	-2.046742e+02	2.739889e+01	0	0
4010078	2.005000e+00	-1.839162e+02	2.432333e+01	0	0
4012031	2.005000e+00	-2.061339e+02	1.803020e+01	0	0
4013984	2.005000e+00	-2.308415e+02	7.703979e+00	0	0
4015938	2.005000e+00	-2.213462e+02	1.504816e+00	0	0
4017891	2.005000e+00	-2.101185e+02	5.436811e-01	0	0
4019844	2.005429e+00	-2.355689e+02	-7.224839e+00	0	0
4021797	2.005570e+00	-2.319575e+02	-1.604780e+01	0	0
4023750	2.005430e+00	-2.048211e+02	-2.171662e+01	0	0
4025703	2.006000e+00	-1.909948e+02	-2.399283e+01	0	0
4027656	2.006000e+00	-1.616286e+02	-2.254312e+01	0	0
4029609	2.006000e+00	-1.422676e+02	-1.832643e+01	0	0
4031563	2.006000e+00	-1.270976e+02	-1.241212e+01	0	0
4033516	2.006000e+00	-1.213225e+02	-5.414631e+00	0	0
4035469	2.006000e+00	-1.288572e+02	3.459558e+00	0	0
4037422	2.006000e+00	-1.553871e+02	8.622409e+00	0	0
4039375	2.006000e+00	-1.693064e+02	7.845370e+00	0	0
4041328	2.006000e+00	-1.516427e+02	1.276586e+01	0	0
4043281	2.006000e+00	-1.465063e+02	2.181252e+01	0	0
4045234	2.006000e+00	-1.353017e+02	3.023571e+01	0	0
4047188	2.006000e+00	-1.452440e+02	3.444863e+01	0	0
4049141	2.006000e+00	-1.554278e+02	1.900294e+01	0	0
4051094	2.006000e+00	-1.470896e+02	-3.654891e+00	0	0
4053047	2.006000e+00	-1.344223e+02	-2.714120e+01	0	0
4055000	2.006432e+00	-1.226903e+02	-4.191066e+01	0	0
4056953	2.007000e+00	-1.224016e+02	-3.217055e+01	0	0
4058906	2.007000e+00	-1.258431e+02	-2.574172e+01	0	0
4060859	2.007000e+00	-1.116684e+02	-1.977845e+01	0	0
4062813	2.007000e+00	-7.787340e+01	-1.810419e+01	0	0
4064766	2.007000e+00	-7.473882e+01	-2.231373e+01	0	0
4066719	2.007000e+00	-5.597669e+01	-2.618440e+01	0	0
4068672	2.007000e+00	-2.431342e+01	-2.855544e+01	0	0
4070625	2.007000e+00	-1.486893e+01	-3.905710e+01	0	0
4072578	2.007000e+00	8.246710e+00	-6.599389e+01	0	0
4074531	2.007000e+00	5.002644e+01	-7.774613e+01	0	0
4076484	2.007000e+00	5.174786e+01	-6.321519e+01	0	0
4078438	2.007000e+00	-8.438451e+00	-2.594660e+01	0	0
4080391	2.007000e+00	-3.264656e+01	1.475309e+01	0	0
4082344	2.007000e+00	-3.402220e+01	5.303468e+01	0	0
4084297	2.007000e+00	-2.029828e+01	9.543196e+01	0	0
4086250	2.007000e+00	1.849381e+01	1.080417e+02	0	0
4088203	2.007435e+00	5.620558e+01	6.956026e+01	0	0
4090156	2.008000e+00	8.868092e+01	1.158921e+01	0	0
4092109	2.008000e+00	8.265179e+01	-5.036023e+01	0	0
4094063	2.008000e+00	1.234803e+02	-1.141094e+02	0	0
4096016	2.008000e+00	1.693956e+02	-1.284936e+02	0	0
4097969	2.008000e+00	1.646133e+02	-9.708310e+01	0	0
4099922	2.008000e+00	1.832694e+02	-5.495697e+01	0	0
4101875	2.008000e+00	1.719129e+02	-1.251488e+01	0	0
4103828	2.008000e+00	1.613920e+02	3.161767e+01	0	0
4105781	2.008000e+00	1.804498e+02	4.677384e+01	0	0
4107734	2.008000e+00	1.909818e+02	3.085732e+01	0	0
4109688	2.008000e+00	2.166664e+02	9.327453e+00	0	0
4111641	2.008000e+00	2.318817e+02	-6.759564e+00	0	0
4113594	2.008000e+00	2.220282e+02	-2.475224e+01	0	0
4115547	2.008438e+00	2.379404e+02	-3.534210e+01	0	0
4117500	2.009000e+00	2.607757e+02	-3.804506e+01	0	0
4119453	2.009000e+00	2.500590e+02	-3.098553e+01	0	0
4121406	2.009000e+00	2.504927e+02	-1.532379e+01	0	0
4123359	2.009000e+00	2.462324e+02	5.293895e+00	0	0
4125313	2.009000e+00	2.559250e+02	3.083976e+01	0	0
4127266	2.009000e+00	2.837725e+02	4.928353e+01	0	0
4129219	2.009000e+00	2.939252e+02	6.651221e+01	0	0
4131172	2.009000e+00	3.074849e+02	9.372228e+01	0	0
4133125	2.009000e+00	2.916459e+02	1.092246e+02	0	0
4135078	2.009000e+00	2.818967e+02	1.180398e+02	0	0
4137031	2.009000e+00	2.943339e+02	1.198733e+02	0	0
4138984	2.009439e+00	2.623130e+02	1.012172e+02	0	0
4140938	2.009560e+00	2.230871e+02	6.397274e+01	0	0
4142891	2.009440e+00	2.200540e+02	2.991009e+01	0	0
4144844	2.010000e+00	2.171168e+02	-2.311909e+01	0	0
4146797	2.010000e+00	1.992728e+02	-1.026149e+02	0	0
4148750	2.010000e+00	1.931966e+02	-1.885987e+02	0	0
4150703	2.010000e+00	1.761099e+02	-2.843720e+02	0	0
4152656	2.010000e+00	1.338919e+02	-3.105413e+02	0	0
4154609	2.010000e+00	9.440000e+01	-2.082470e+02	0	0
4156563	2.010000e+00	8.439328e+01	-3.379722e+01	0	0
4158516	2.010000e+00	6.086536e+01	1.025853e+02	0	0
4160469	2.010000e+00	1.491862e+01	1.444427e+02	0	0
4162422	2.010000e+00	-1.575309e+01	1.324947e+02	0	0
4164375	2.010000e+00	-4.832972e+01	1.199207e+02	0	0
4166328	2.010000e+00	-9.601023e+01	9.314693e+01	0	0
4168281	2.010000e+00	-1.139558e+02	6.182664e+01	0	0
4170234	2.010442e+00	-1.037271e+02	3.348376e+01	0	0
4172188	2.011000e+00	-1.359006e+02	7.435228e+00	0	0
4174141	2.011000e+00	-1.655799e+02	-1.534324e+01	0	0
4176094	2.011000e+00	-1.656672e+02	-1.838360e+01	0	0
4178047	2.011000e+00	-1.860405e+02	-2.098550e+01	0	0
4180000	2.011000e+00	-2.288032e+02	-2.705677e+01	0	0
4181953	2.011000e+00	-2.617654e+02	-3.285932e+01	0	0
4183906	2.011000e+00	-2.639306e+02	-4.482083e+00	0	0
4185859	2.011000e+00	-2.733592e+02	5.142582e+00	0	0
4187813	2.011000e+00	-2.646752e+02	-3.077173e+01	0	0
4189766	2.011000e+00	-2.757623e+02	-2.268503e+01	0	0
4191719	2.011444e+00	-3.078589e+02	-1.245621e+01	0	0
4193672	2.012000e+00	-3.207063e+02	-1.502078e+01	0	0
4195625	2.012000e+00	-3.419046e+02	-2.649556e+01	0	0
4197578	2.012000e+00	-3.075002e+02	-9.673207e+01	0	0
4199531	2.012000e+00	-3.106589e+02	-7.191727e+01	0	0
4201484	2.012000e+00	-3.184859e+02	5.355774e+01	0	0
4203438	2.012000e+00	-2.999132e+02	4.644778e+01	0	0
4205391	2.012000e+00	-2.834587e+02	1.061150e+02	0	0
4207344	2.012000e+00	-2.612796e+02	2.106946e+02	0	0
4209297	2.012000e+00	-2.308800e+02	1.379941e+02	0	0
4211250	2.012000e+00	-2.019051e+02	-1.957145e+01	0	0
4213203	2.012446e+00	-2.130895e+02	-1.090740e+02	0	0
4215156	2.013000e+00	-2.168560e+02	-2.569148e+02	0	0
4217109	2.013000e+00	-2.562548e+02	-3.117402e+02	0	0
4219063	2.013000e+00	-2.746915e+02	-2.262520e+02	0	0
4221016	2.013000e+00	-2.896064e+02	-1.212541e+02	0	0
4222969	2.013000e+00	-3.132430e+02	3.702030e+01	0	0
4224922	2.013000e+00	-3.183438e+02	1.631659e+02	0	0
4226875	2.013000e+00	-3.088280e+02	2.255994e+02	0	0
4228828	2.013000e+00	-3.110863e+02	2.410046e+02	0	0
4230781	2.013000e+00	-3.140566e+02	2.344026e+02	0	0
4232734	2.013000e+00	-3.220497e+02	2.090565e+02	0	0
4234688	2.013000e+00	-3.346878e+02	1.494420e+02	0	0
4236641	2.013448e+00	-3.270936e+02	7.336620e+01	0	0
4238594	2.014000e+00	-3.397054e+02	-4.283614e+01	0	0
4240547	2.014000e+00	-3.523012e+02	-1.195108e+02	0	0
4242500	2.014000e+00	-3.597144e+02	-1.637658e+02	0	0
4244453	2.014000e+00	-3.369031e+02	-1.979867e+02	0	0
4246406	2.014000e+00	-3.290659e+02	-1.814576e+02	0	0
4248359	2.014000e+00	-3.200339e+02	-2.695159e+02	0	0
4250313	2.014000e+00	-2.758372e+02	-3.925559e+02	0	0
4252266	2.014000e+00	-2.589992e+02	-3.854833e+02	0	0
4254219	2.014000e+00	-2.786300e+02	-1.923844e+02	0	0
4256172	2.014450e+00	-3.169145e+02	-4.028554e+01	0	0
4258125	2.015000e+00	-3.706903e+02	1.501889e+02	0	0
4260078	2.015000e+00	-3.754032e+02	2.522308e+02	0	0
4262031	2.015000e+00	-3.977598e+02	2.355559e+02	0	0
4263984	2.015000e+00	-4.108496e+02	2.268532e+02	0	0
4265938	2.015000e+00	-3.618166e+02	2.450223e+02	0	0
4267891	2.015000e+00	-3.581753e+02	2.456717e+02	0	0
4269844	2.015000e+00	-3.381581e+02	2.106459e+02	0	0
4271797	2.015000e+00	-2.999452e+02	1.983704e+02	0	0
4273750	2.015000e+00	-3.094315e+02	9.711338e+00	0	0
4275703	2.015451e+00	-2.959725e+02	-2.502921e+02	0	0
4277656	2.016000e+00	-3.048478e+02	-4.422430e+02	0	0
4279609	2.016000e+00	-3.477787e+02	-2.712422e+02	0	0
4281563	2.016000e+00	-3.654181e+02	-8.568418e+01	0	0
4283516	2.016000e+00	-3.732799e+02	1.576539e+02	0	0
4285469	2.016000e+00	-3.590947e+02	4.188881e+02	0	0
4287422	2.016000e+00	-3.538160e+02	1.921847e+02	0	0
4289375	2.016000e+00	-3.168812e+02	-1.550323e+02	0	0
4291328	2.016000e+00	-2.741566e+02	-4.057905e+02	0	0
4293281	2.016000e+00	-2.832393e+02	-2.838339e+02	0	0
4295234	2.016453e+00	-2.778104e+02	1.057670e+02	0	0
4297188	2.017000e+00	-2.794062e+02	2.919116e+02	0	0
4299141	2.017000e+00	-3.027156e+02	1.216067e+02	0	0
4301094	2.017000e+00	-3.314538e+02	-4.378828e+02	0	0
4303047	2.017000e+00	-3.619733e+02	-4.992746e+02	0	0
4305000	2.017000e+00	-3.059412e+02	-1.797355e+02	0	0
4306953	2.017000e+00	-2.098664e+02	9.631959e+00	0	0
4308906	2.017000e+00	-2.276569e+02	1.508523e+02	0	0
4310859	2.017000e+00	-2.568588e+02	5.058361e+01	0	0
4312813	2.017000e+00	-2.446157e+02	4.516038e+01	0	0
4314766	2.017455e+00	-2.401679e+02	1.026381e+02	0	0
4316719	2.018000e+00	-2.003940e+02	1.085015e+02	0	0
4318672	2.018000e+00	-1.607447e+02	6.255461e+01	0	0
4320625	2.018000e+00	-2.028912e+02	8.350933e+01	0	0
4322578	2.018000e+00	-3.263100e+02	1.803697e+02	0	0
4324531	2.018000e+00	-4.250723e+02	1.988694e+02	0	0
4326484	2.018000e+00	-4.393208e+02	5.142599e+01	0	0
4328438	2.018000e+00	-3.883089e+02	-1.502834e+02	0	0
4330391	2.018000e+00	-3.143143e+02	-2.028634e+02	0	0
4332344	2.018456e+00	-2.398537e+02	-3.794991e+02	0	0
4334297	2.019000e+00	-2.345676e+02	-5.471276e+02	0	0
4336250	2.019000e+00	-2.215644e+02	-3.746310e+02	0	0
4338203	2.019000e+00	-2.154719e+02	-1.784148e+02	0	0
4340156	2.019000e+00	-2.235152e+02	1.305674e+02	0	0
4342109	2.019000e+00	-2.528465e+02	4.374526e+02	0	0
4344063	2.019000e+00	-2.973977e+02	2.634594e+02	0	0
4346016	2.019000e+00	-2.519258e+02	4.000226e+01	0	0
4347969	2.019458e+00	-2.027919e+02	1.117241e+02	0	0
4349922	2.020000e+00	-1.848511e+02	-1.842720e+01	0	0
4351875	2.020000e+00	-1.671117e+02	-2.272901e+02	0	0
4353828	2.020000e+00	-1.782092e+02	-1.475302e+02	0	0
4355781	2.020000e+00	-2.085059e+02	1.659260e+01	0	0
4357734	2.020000e+00	-1.959832e+02	2.131975e+02	0	0
4359688	2.020000e+00	-1.956892e+02	3.119018e+02	0	0
4361641	2.020459e+00	-1.954300e+02	1.301201e+02	0	0
4363594	2.021000e+00	-1.664942e+02	-3.069313e+01	0	0
4365547	2.021000e+00	-1.373972e+02	-6.024190e+01	0	0
4367500	2.021000e+00	-1.397912e+02	-1.059313e+02	0	0
4369453	2.021000e+00	-1.122737e+02	-1.558443e+02	0	0
4371406	2.021000e+00	-7.338127e+01	-1.897362e+02	0	0
4373359	2.021000e+00	-5.936246e+01	-3.646562e+02	0	0
4375313	2.021000e+00	-3.863673e+01	-2.955403e+02	0	0
4377266	2.021000e+00	-5.639179e+01	-1.069866e+02	0	0
4379219	2.021460e+00	-8.824295e+01	9.795385e+01	0	0
4381172	2.022000e+00	-8.888357e+01	2.356240e+02	0	0
4383125	2.022000e+00	-6.291948e+01	1.076782e+02	0	0
4385078	2.022000e+00	-2.824927e+01	1.372428e+02	0	0
4387031	2.022000e+00	-4.808681e+00	2.391728e+02	0	0
4388984	2.022000e+00	1.036668e+01	2.848027e+02	0	0
4390938	2.022000e+00	-4.991151e-01	3.061182e+02	0	0
4392891	2.022000e+00	-1.908641e+01	2.272410e+02	0	0
4394844	2.022000e+00	-8.382205e+00	1.308355e+02	0	0
4396797	2.022462e+00	-7.596914e+00	6.475295e-01	0	0
4398750	2.023000e+00	-1.511466e+01	-1.418961e+02	0	0
4400703	2.023000e+00	-2.436723e+01	-2.752634e+02	0	0
4402656	2.023000e+00	-3.086594e+01	-3.689188e+02	0	0
4404609	2.023000e+00	-3.227942e+01	-4.084333e+02	0	0
4406563	2.023000e+00	-1.921083e+01	-4.007336e+02	0	0
4408516	2.023000e+00	-1.992180e+01	-3.026967e+02	0	0
4410469	2.023000e+00	-3.564239e+01	-1.457531e+02	0	0
4412422	2.023463e+00	-5.234069e+01	4.517317e+01	0	0
4414375	2.024000e+00	-1.087273e+02	2.367008e+02	0	0
4416328	2.024000e+00	-1.485809e+02	2.877096e+02	0	0
4418281	2.024000e+00	-1.706660e+02	2.857441e+02	0	0
4420234	2.024000e+00	-2.062158e+02	2.255164e+02	0	0
4422188	2.024000e+00	-2.327554e+02	1.148894e+02	0	0
4424141	2.024000e+00	-2.540409e+02	2.717197e+00	0	0
4426094	2.024464e+00	-2.542436e+02	-1.282153e+02	0	0
4428047	2.025000e+00	-2.375719e+02	-2.292400e+02	0	0
4430000	2.025000e+00	-2.257585e+02	-2.712815e+02	0	0
4431953	2.025000e+00	-2.583477e+02	-2.201912e+02	0	0
4433906	2.025000e+00	-2.950176e+02	-9.982729e+01	0	0
4435859	2.025000e+00	-3.135322e+02	6.084408e+01	0	0
4437813	2.025000e+00	-3.309465e+02	1.152588e+02	0	0
4439766	2.025466e+00	-3.171309e+02	1.163305e+02	0	0
4441719	2.026000e+00	-3.321300e+02	8.992233e+01	0	0
4443672	2.026000e+00	-3.453034e+02	7.971816e+01	0	0
4445625	2.026000e+00	-3.225517e+02	1.055638e+02	0	0
4447578	2.026000e+00	-3.087512e+02	1.048979e+02	0	0
4449531	2.026000e+00	-3.023825e+02	8.075933e+01	0	0
4451484	2.026000e+00	-3.028733e+02	-4.675513e+01	0	0
4453438	2.026467e+00	-2.919562e+02	-1.106851e+02	0	0
