time	gsr	ecg	emg_trapezius	emg_corrugator	emg_zygomaticus
1719	2.079000e+00	-6.359585e+01	-3.609750e+00	0	0
3672	2.079000e+00	-6.935070e+01	-3.720834e+00	0	0
5625	2.079000e+00	-7.971210e+01	-3.832858e+00	0	0
7578	2.079000e+00	-9.151290e+01	-3.947262e+00	0	0
9531	2.079000e+00	-1.025889e+02	-4.058747e+00	0	0
11484	2.079000e+00	-1.018936e+02	-4.187151e+00	0	0
13438	2.079000e+00	-1.009710e+02	-4.169888e+00	0	0
15391	2.079000e+00	-9.384713e+01	-4.311473e+00	0	0
17344	2.079000e+00	-7.825966e+01	-4.524215e+00	0	0
19297	2.078136e+00	-7.091162e+01	-4.648675e+00	0	0
21250	2.078864e+00	-7.102658e+01	-4.764123e+00	0	0
23203	2.078136e+00	-6.954652e+01	-4.836088e+00	0	0
25156	2.078000e+00	-7.796414e+01	-4.845350e+00	0	0
27109	2.078000e+00	-8.303355e+01	-4.843339e+00	0	0
29063	2.078000e+00	-9.078526e+01	-4.835771e+00	0	0
31016	2.078000e+00	-1.184419e+02	-4.820398e+00	0	0
32969	2.078000e+00	-1.097034e+02	-4.798016e+00	0	0
34922	2.078000e+00	-1.012352e+02	-4.769036e+00	0	0
36875	2.078000e+00	-9.283071e+01	-4.733270e+00	0	0
38828	2.078000e+00	-7.733687e+01	-4.689415e+00	0	0
40781	2.078000e+00	-7.021641e+01	-4.639763e+00	0	0
42734	2.078000e+00	-7.913221e+01	-4.574035e+00	0	0
44688	2.078000e+00	-8.348254e+01	-4.572780e+00	0	0
46641	2.078000e+00	-9.238981e+01	-4.446847e+00	0	0
48594	2.078000e+00	-1.032508e+02	-4.352051e+00	0	0
50547	2.078000e+00	-9.920907e+01	-4.260193e+00	0	0
52500	2.078000e+00	-1.184557e+02	-4.155278e+00	0	0
54453	2.078000e+00	-1.096434e+02	-4.041850e+00	0	0
56406	2.078000e+00	-9.326495e+01	-3.919754e+00	0	0
58359	2.078000e+00	-8.822317e+01	-3.790496e+00	0	0
60313	2.078000e+00	-9.012428e+01	-3.654290e+00	0	0
62266	2.078000e+00	-7.814013e+01	-3.511566e+00	0	0
64219	2.078000e+00	-8.681380e+01	-3.362546e+00	0	0
66172	2.078000e+00	-9.401822e+01	-3.207516e+00	0	0
68125	2.078000e+00	-9.042863e+01	-3.046778e+00	0	0
70078	2.078000e+00	-9.619994e+01	-2.880582e+00	0	0
72031	2.078000e+00	-1.181045e+02	-2.709356e+00	0	0
73984	2.078000e+00	-1.259595e+02	-2.532877e+00	0	0
75938	2.078000e+00	-1.087827e+02	-2.353251e+00	0	0
77891	2.078000e+00	-1.047476e+02	-2.163626e+00	0	0
79844	2.078000e+00	-8.785490e+01	-2.032723e+00	0	0
81797	2.078000e+00	-8.949648e+01	-1.902202e+00	0	0
83750	2.078000e+00	-8.333654e+01	-1.754782e+00	0	0
85703	2.078000e+00	-8.412057e+01	-1.593644e+00	0	0
87656	2.078000e+00	-9.610059e+01	-1.419376e+00	0	0
89609	2.078000e+00	-1.040205e+02	-1.233122e+00	0	0
91563	2.078000e+00	-1.120216e+02	-1.032366e+00	0	0
93516	2.078000e+00	-1.050156e+02	-7.972490e-01	0	0
95469	2.078000e+00	-1.279693e+02	-5.540557e-01	0	0
97422	2.078000e+00	-1.335541e+02	-2.911677e-01	0	0
99375	2.078000e+00	-1.273518e+02	-1.882342e-01	0	0
101328	2.078000e+00	-1.337894e+02	-2.042041e-01	0	0
103281	2.078000e+00	-1.330759e+02	-2.226799e-01	0	0
105234	2.078000e+00	-1.047072e+02	-2.344362e-01	0	0
107188	2.078000e+00	-8.744941e+01	-2.418019e-01	0	0
109141	2.078000e+00	-9.269449e+01	-2.440328e-01	0	0
111094	2.078000e+00	-7.351501e+01	-2.413166e-01	0	0
113047	2.078000e+00	-8.734647e+01	-2.323856e-01	0	0
115000	2.078000e+00	-9.070869e+01	-2.186170e-01	0	0
116953	2.078000e+00	-8.907448e+01	-2.003413e-01	0	0
118906	2.078000e+00	-8.169539e+01	-1.771188e-01	0	0
120859	2.078000e+00	-7.422988e+01	-1.501453e-01	0	0
122813	2.078000e+00	-5.623806e+01	-1.147532e-01	0	0
124766	2.078000e+00	-7.246889e+01	-1.317743e-01	0	0
126719	2.078000e+00	-6.438627e+01	-2.314370e-01	0	0
128672	2.078000e+00	-6.010071e+01	-2.946198e-01	0	0
130625	2.078000e+00	-5.808290e+01	-3.084337e-01	0	0
132578	2.078000e+00	-5.337298e+01	-2.784473e-01	0	0
134531	2.078000e+00	-1.982862e+01	-2.020571e-01	0	0
136484	2.078000e+00	1.247047e+01	-9.073533e-02	0	0
138438	2.078000e+00	4.359080e+01	1.248924e-01	0	0
140391	2.077132e+00	8.316341e+01	3.126255e-01	0	0
142344	2.077000e+00	6.023729e+01	3.277748e-01	0	0
144297	2.077868e+00	5.334237e+01	3.288955e-01	0	0
146250	2.078000e+00	3.195414e+01	3.558513e-01	0	0
148203	2.078000e+00	3.100399e+01	3.674600e-01	0	0
150156	2.078000e+00	2.286771e+01	3.611639e-01	0	0
152109	2.078000e+00	1.732756e+01	3.340230e-01	0	0
154063	2.078000e+00	2.811996e+01	3.263656e-01	0	0
156016	2.078000e+00	3.393392e+01	3.271848e-01	0	0
157969	2.078000e+00	3.806855e+01	3.262607e-01	0	0
159922	2.077132e+00	6.300755e+01	3.308882e-01	0	0
161875	2.077000e+00	8.242926e+01	3.150435e-01	0	0
163828	2.077000e+00	6.727608e+01	5.804731e-01	0	0
165781	2.077868e+00	6.481015e+01	1.113253e+00	0	0
167734	2.077132e+00	7.764557e+01	1.580076e+00	0	0
169688	2.077000e+00	8.236072e+01	1.936834e+00	0	0
171641	2.077000e+00	1.166259e+02	2.182059e+00	0	0
173594	2.077000e+00	1.151692e+02	2.305615e+00	0	0
175547	2.077000e+00	1.061139e+02	2.290034e+00	0	0
177500	2.077000e+00	1.235548e+02	2.164056e+00	0	0
179453	2.077000e+00	1.086699e+02	1.762560e+00	0	0
181406	2.077000e+00	1.098928e+02	1.100564e+00	0	0
183359	2.077000e+00	1.261837e+02	3.824934e-01	0	0
185313	2.077000e+00	9.482824e+01	3.174893e-01	0	0
187266	2.077000e+00	8.113777e+01	3.350244e-01	0	0
189219	2.077000e+00	6.910967e+01	3.228258e-01	0	0
191172	2.077000e+00	5.188075e+01	2.955313e-01	0	0
193125	2.077000e+00	3.617984e+01	2.679965e-01	0	0
195078	2.077000e+00	1.073214e+01	2.291440e-01	0	0
197031	2.077000e+00	1.508192e+01	1.983943e-01	0	0
198984	2.077000e+00	2.539764e+01	-5.581556e-01	0	0
200938	2.077000e+00	1.475255e+01	-1.210923e+00	0	0
202891	2.077000e+00	-1.740026e+00	-1.595794e+00	0	0
204844	2.077000e+00	-2.251131e+01	-1.724020e+00	0	0
206797	2.077000e+00	-4.956189e+01	-1.568851e+00	0	0
208750	2.077000e+00	-7.068987e+01	-1.118195e+00	0	0
210703	2.077000e+00	-9.244971e+01	-4.627687e-01	0	0
212656	2.077000e+00	-1.049133e+02	3.861988e-01	0	0
214609	2.077000e+00	-1.024445e+02	4.851181e-01	0	0
216563	2.077000e+00	-9.523826e+01	4.717959e-01	0	0
218516	2.077000e+00	-8.962752e+01	4.780793e-01	0	0
220469	2.077000e+00	-9.023519e+01	4.713619e-01	0	0
222422	2.077000e+00	-1.036035e+02	4.604876e-01	0	0
224375	2.077000e+00	-1.119956e+02	4.429825e-01	0	0
226328	2.077000e+00	-1.283323e+02	4.191525e-01	0	0
228281	2.077000e+00	-1.308915e+02	3.886889e-01	0	0
230234	2.077000e+00	-1.422329e+02	3.517894e-01	0	0
232188	2.077000e+00	-1.671248e+02	3.086004e-01	0	0
234141	2.077000e+00	-1.795498e+02	2.593307e-01	0	0
236094	2.077000e+00	-1.669977e+02	2.041742e-01	0	0
238047	2.077000e+00	-1.592248e+02	1.431506e-01	0	0
240000	2.077000e+00	-1.369032e+02	7.700944e-02	0	0
241953	2.077000e+00	-1.229021e+02	3.775378e-03	0	0
243906	2.077000e+00	-1.446071e+02	-6.835771e-02	0	0
245859	2.077000e+00	-1.366045e+02	-1.691474e-01	0	0
247813	2.077000e+00	-1.407670e+02	2.068838e-01	0	0
249766	2.077000e+00	-1.446991e+02	1.604747e+00	0	0
251719	2.077000e+00	-1.613816e+02	2.096191e+00	0	0
253672	2.077000e+00	-1.765183e+02	1.388638e+00	0	0
255625	2.077000e+00	-1.627427e+02	-4.493916e-01	0	0
257578	2.077000e+00	-1.611637e+02	-6.693165e-01	0	0
259531	2.077000e+00	-1.460911e+02	-6.275928e-01	0	0
261484	2.077000e+00	-1.309729e+02	-7.221642e-01	0	0
263438	2.077000e+00	-1.394629e+02	-5.286016e-01	0	0
265391	2.077000e+00	-1.447292e+02	-3.437737e+00	0	0
267344	2.077000e+00	-1.405160e+02	-5.839214e+00	0	0
269297	2.077000e+00	-1.668369e+02	-6.227662e+00	0	0
271250	2.077000e+00	-1.797304e+02	-4.928610e+00	0	0
273203	2.077000e+00	-1.639097e+02	-1.748244e+00	0	0
275156	2.077000e+00	-1.742761e+02	-8.332051e-01	0	0
277109	2.077000e+00	-1.654268e+02	-8.389938e-01	0	0
279063	2.077000e+00	-1.203749e+02	-9.689718e-01	0	0
281016	2.076128e+00	-1.298731e+02	7.909517e-01	0	0
282969	2.076000e+00	-1.254426e+02	3.874879e+00	0	0
284922	2.076872e+00	-1.295328e+02	5.731551e+00	0	0
286875	2.077000e+00	-1.356696e+02	5.724450e+00	0	0
288828	2.077000e+00	-1.537853e+02	3.622211e+00	0	0
290781	2.076128e+00	-1.946942e+02	-6.746931e-01	0	0
292734	2.076000e+00	-2.316894e+02	-1.156015e+00	0	0
294688	2.076000e+00	-2.482490e+02	-9.747880e-01	0	0
296641	2.076000e+00	-2.107990e+02	-2.722240e+00	0	0
298594	2.076000e+00	-1.773326e+02	-6.626585e+00	0	0
300547	2.076000e+00	-8.330422e+01	-8.969536e+00	0	0
302500	2.076000e+00	-7.056083e+00	-9.079943e+00	0	0
304453	2.076000e+00	7.734302e+01	-6.989754e+00	0	0
306406	2.076000e+00	1.756314e+02	-2.367882e+00	0	0
308359	2.076000e+00	3.125920e+02	-1.328037e+00	0	0
310313	2.076000e+00	5.619463e+02	-1.471665e+00	0	0
312266	2.076000e+00	8.626198e+02	-1.754990e+00	0	0
314219	2.076000e+00	1.106463e+03	2.472872e-01	0	0
316172	2.076000e+00	1.384777e+03	2.355333e+00	0	0
318125	2.076000e+00	1.669434e+03	3.476843e+00	0	0
320078	2.076000e+00	1.910467e+03	4.453781e+00	0	0
322031	2.076000e+00	2.011237e+03	5.317987e+00	0	0
323984	2.076000e+00	1.936795e+03	5.968124e+00	0	0
325938	2.076000e+00	1.738459e+03	6.358705e+00	0	0
327891	2.076000e+00	1.362619e+03	6.193117e+00	0	0
329844	2.076000e+00	1.090512e+03	5.307378e+00	0	0
331797	2.076000e+00	8.434396e+02	3.751022e+00	0	0
333750	2.076000e+00	6.518309e+02	1.849759e+00	0	0
335703	2.076000e+00	3.712571e+02	-4.483627e-02	0	0
337656	2.076000e+00	2.031795e+00	-2.729994e+00	0	0
339609	2.076000e+00	-2.051825e+02	-4.041812e+00	0	0
341563	2.076000e+00	-2.533803e+02	-4.264811e+00	0	0
343516	2.076000e+00	-2.600394e+02	-4.462938e+00	0	0
345469	2.076000e+00	-2.388184e+02	-4.480271e+00	0	0
347422	2.076000e+00	-2.130565e+02	-6.642333e+00	0	0
349375	2.076000e+00	-1.918530e+02	-9.480381e+00	0	0
351328	2.076000e+00	-1.629047e+02	-1.143027e+01	0	0
353281	2.076000e+00	-1.414385e+02	-1.270571e+01	0	0
355234	2.076000e+00	-9.174364e+01	-1.295912e+01	0	0
357188	2.076000e+00	-8.185038e+01	-1.166868e+01	0	0
359141	2.076000e+00	-3.333289e+01	-8.745213e+00	0	0
361094	2.076000e+00	-4.447954e+01	-6.981211e+00	0	0
363047	2.076000e+00	-4.733100e+01	-6.702772e+00	0	0
365000	2.076000e+00	-6.683336e+01	-6.353440e+00	0	0
366953	2.076000e+00	-7.037914e+01	-5.786128e+00	0	0
368906	2.076000e+00	-8.927961e+01	-4.945822e+00	0	0
370859	2.076000e+00	-1.073383e+02	-2.179003e+00	0	0
372813	2.076000e+00	-1.074539e+02	-4.374635e-01	0	0
374766	2.076000e+00	-1.118738e+02	1.466322e-01	0	0
376719	2.076000e+00	-9.840694e+01	-3.686876e-01	0	0
378672	2.076000e+00	-1.015939e+02	-2.374128e+00	0	0
380625	2.076000e+00	-8.812977e+01	-4.610519e+00	0	0
382578	2.076000e+00	-7.003587e+01	-4.786679e+00	0	0
384531	2.076000e+00	-6.637557e+01	-4.807039e+00	0	0
386484	2.076000e+00	-6.319570e+01	-4.576326e+00	0	0
388438	2.076000e+00	-6.411446e+01	-7.662611e+00	0	0
390391	2.076000e+00	-5.195656e+01	-8.498080e+00	0	0
392344	2.076000e+00	-5.069817e+01	-7.092745e+00	0	0
394297	2.076000e+00	-3.571573e+01	-3.610528e+00	0	0
396250	2.076000e+00	-3.122537e+01	-3.063630e+00	0	0
398203	2.076000e+00	-5.571334e+01	-2.797468e+00	0	0
400156	2.076000e+00	-3.086106e+01	-2.851876e+00	0	0
402109	2.076000e+00	-3.353238e+01	-2.799511e-01	0	0
404063	2.076000e+00	-3.944571e+01	1.634483e+00	0	0
406016	2.076000e+00	-4.520887e+01	1.903114e+00	0	0
407969	2.076000e+00	-5.339532e+01	8.797702e-01	0	0
409922	2.076000e+00	-6.343350e+01	-1.589642e+00	0	0
411875	2.076000e+00	-5.107395e+01	-2.468572e+00	0	0
413828	2.076000e+00	-4.866087e+01	-2.255503e+00	0	0
415781	2.076000e+00	-4.431976e+01	-2.079018e+00	0	0
417734	2.076000e+00	-3.907590e+01	-1.726158e+00	0	0
419688	2.075123e+00	-2.342634e+01	-3.888066e+00	0	0
421641	2.075877e+00	-1.412858e+01	-5.954128e+00	0	0
423594	2.076000e+00	-1.502675e+01	-6.464864e+00	0	0
425547	2.075123e+00	-2.563312e+01	-5.514759e+00	0	0
427500	2.075000e+00	-3.674388e+01	-3.690507e+00	0	0
429453	2.075877e+00	-4.108049e+01	-1.379732e+00	0	0
431406	2.075123e+00	-4.121899e+01	-1.131425e+00	0	0
433359	2.075000e+00	-4.920131e+01	-1.138588e+00	0	0
435313	2.075000e+00	-3.677558e+01	-1.078217e+00	0	0
437266	2.075000e+00	-1.439162e+01	-1.035749e+00	0	0
439219	2.075877e+00	-6.287712e+00	-9.903181e-01	0	0
441172	2.075123e+00	1.649113e+01	-7.951301e-01	0	0
443125	2.075000e+00	3.023030e+01	-4.300173e-02	0	0
445078	2.075000e+00	2.110236e+01	-2.924852e-01	0	0
447031	2.075000e+00	9.058171e+00	-7.758706e-01	0	0
448984	2.075000e+00	8.177475e-01	-1.020164e+00	0	0
450938	2.075000e+00	-3.514237e+00	-1.261837e+00	0	0
452891	2.075000e+00	-6.724387e+00	-1.515504e+00	0	0
454844	2.075000e+00	-4.348450e+00	-1.804949e+00	0	0
456797	2.075000e+00	1.047039e+01	-1.785039e+00	0	0
458750	2.075000e+00	6.130782e+00	-1.725932e+00	0	0
460703	2.075000e+00	4.611088e+01	-1.675360e+00	0	0
462656	2.075000e+00	4.749749e+01	-1.620103e+00	0	0
464609	2.075000e+00	3.212325e+01	-1.566069e+00	0	0
466563	2.075000e+00	4.064652e+01	-1.444474e+00	0	0
468516	2.075000e+00	3.219642e+01	-1.072012e+00	0	0
470469	2.075000e+00	2.457916e+01	-6.758893e-01	0	0
472422	2.075000e+00	3.421625e+01	-8.642275e-01	0	0
474375	2.075000e+00	3.702887e+01	-1.257144e+00	0	0
476328	2.075000e+00	1.820171e+01	-1.663687e+00	0	0
478281	2.075000e+00	3.228116e+01	-2.097877e+00	0	0
480234	2.075000e+00	6.765573e+01	-2.553042e+00	0	0
482188	2.075000e+00	7.112544e+01	-3.021247e+00	0	0
484141	2.075000e+00	5.363425e+01	-3.494705e+00	0	0
486094	2.075000e+00	5.130642e+01	-3.964333e+00	0	0
488047	2.075000e+00	4.160975e+01	-4.430090e+00	0	0
490000	2.075000e+00	4.215258e+01	-4.870310e+00	0	0
491953	2.075000e+00	6.098303e+01	-5.351812e+00	0	0
493906	2.075000e+00	8.072257e+01	-4.974904e+00	0	0
495859	2.075000e+00	9.395557e+01	-3.164287e+00	0	0
497813	2.075000e+00	1.106735e+02	3.443286e-01	0	0
499766	2.075000e+00	1.360951e+02	-3.439770e+00	0	0
501719	2.075000e+00	1.468397e+02	-4.460613e+00	0	0
503672	2.075000e+00	1.459845e+02	2.445101e+00	0	0
505625	2.075000e+00	1.434611e+02	7.116228e-01	0	0
507578	2.075000e+00	1.410911e+02	1.313553e+00	0	0
509531	2.075000e+00	1.405998e+02	1.207914e+01	0	0
511484	2.075000e+00	1.506064e+02	2.955963e+01	0	0
513438	2.075000e+00	1.511238e+02	3.384263e+01	0	0
515391	2.075000e+00	1.677652e+02	5.665839e+01	0	0
517344	2.075000e+00	1.797985e+02	5.703031e+01	0	0
519297	2.075000e+00	1.909209e+02	1.480400e+01	0	0
521250	2.075000e+00	2.080550e+02	-3.748088e+01	0	0
523203	2.075000e+00	2.256171e+02	-1.019715e+02	0	0
525156	2.075000e+00	2.369224e+02	-1.388985e+02	0	0
527109	2.075000e+00	2.277483e+02	-1.251214e+02	0	0
529063	2.075000e+00	2.321425e+02	-7.562513e+01	0	0
531016	2.075000e+00	2.343014e+02	-3.130772e+01	0	0
532969	2.075000e+00	2.590913e+02	2.167398e+01	0	0
534922	2.075000e+00	2.659062e+02	5.697377e+01	0	0
536875	2.075000e+00	2.892018e+02	5.381102e+01	0	0
538828	2.075000e+00	3.168682e+02	3.083174e+01	0	0
540781	2.075000e+00	3.418426e+02	2.468008e+01	0	0
542734	2.075000e+00	3.532117e+02	8.213133e+00	0	0
544688	2.075000e+00	3.649186e+02	-6.305484e+00	0	0
546641	2.075000e+00	3.703093e+02	-1.142601e+01	0	0
548594	2.075000e+00	3.789758e+02	-9.077445e+00	0	0
550547	2.075000e+00	3.782096e+02	-6.569255e+00	0	0
552500	2.075000e+00	3.770228e+02	-4.607680e+00	0	0
554453	2.075000e+00	4.011942e+02	-2.951284e+00	0	0
556406	2.075000e+00	4.159575e+02	-1.916331e+00	0	0
558359	2.074119e+00	4.432446e+02	1.899939e+00	0	0
560313	2.074000e+00	4.634668e+02	9.897752e+00	0	0
562266	2.074882e+00	4.846225e+02	9.448466e+00	0	0
564219	2.075000e+00	4.941915e+02	5.636967e+00	0	0
566172	2.074118e+00	5.009132e+02	2.018556e+00	0	0
568125	2.074000e+00	4.864899e+02	2.284952e+00	0	0
570078	2.074000e+00	5.025594e+02	3.506575e+00	0	0
572031	2.074000e+00	5.030843e+02	4.206208e+00	0	0
573984	2.074000e+00	5.139432e+02	4.372722e+00	0	0
575938	2.074000e+00	5.238943e+02	4.040621e+00	0	0
577891	2.074000e+00	5.494931e+02	2.749881e+00	0	0
579844	2.074000e+00	5.766666e+02	4.235812e-01	0	0
581797	2.074000e+00	5.906092e+02	-2.634903e+00	0	0
583750	2.074000e+00	5.998949e+02	-2.649211e+00	0	0
585703	2.074000e+00	5.850711e+02	-1.105275e+00	0	0
587656	2.074000e+00	5.716825e+02	6.463673e-01	0	0
589609	2.074000e+00	5.702079e+02	2.429224e+00	0	0
591563	2.074000e+00	5.476041e+02	2.523597e+00	0	0
593516	2.074000e+00	5.185219e+02	1.612378e+00	0	0
595469	2.074000e+00	5.117956e+02	1.857536e+00	0	0
597422	2.074000e+00	5.063997e+02	2.457986e+00	0	0
599375	2.074000e+00	4.924317e+02	2.398605e+00	0	0
601328	2.074000e+00	4.741397e+02	1.533600e+00	0	0
603281	2.074000e+00	4.572023e+02	6.898074e-01	0	0
605234	2.074000e+00	4.111782e+02	-3.334133e-02	0	0
607188	2.074000e+00	3.743537e+02	-6.501692e-01	0	0
609141	2.074000e+00	3.388193e+02	-1.143930e+00	0	0
611094	2.074000e+00	3.052645e+02	-1.507339e+00	0	0
613047	2.074000e+00	2.550669e+02	-1.728963e+00	0	0
615000	2.074000e+00	2.375604e+02	-1.741536e+00	0	0
616953	2.074000e+00	2.156361e+02	-1.216647e+00	0	0
618906	2.074000e+00	2.129968e+02	-5.720171e-01	0	0
620859	2.074000e+00	2.010551e+02	5.101803e-02	0	0
622813	2.074000e+00	1.741824e+02	6.566627e-01	0	0
624766	2.074000e+00	1.394783e+02	1.241429e+00	0	0
626719	2.074000e+00	9.627827e+01	1.798899e+00	0	0
628672	2.074000e+00	6.270507e+01	2.344711e+00	0	0
630625	2.074000e+00	2.618005e+01	2.662081e+00	0	0
632578	2.074000e+00	-7.555003e+00	2.849061e+00	0	0
634531	2.074000e+00	-3.021067e+00	2.972409e+00	0	0
636484	2.074000e+00	-6.995770e+00	2.617564e+00	0	0
638438	2.074000e+00	-2.504683e+01	2.230392e+00	0	0
640391	2.074000e+00	-1.258011e+01	1.879462e+00	0	0
642344	2.074000e+00	9.317347e+00	1.547021e+00	0	0
644297	2.074000e+00	-3.798326e+00	1.281588e+00	0	0
646250	2.074000e+00	-8.540647e+00	1.164177e+00	0	0
648203	2.074000e+00	-6.211180e+00	1.091176e+00	0	0
650156	2.074000e+00	-3.493197e+01	1.049735e+00	0	0
652109	2.074000e+00	-3.491848e+01	1.044414e+00	0	0
654063	2.074000e+00	-5.387602e+01	1.074140e+00	0	0
656016	2.074000e+00	-4.914022e+01	1.139717e+00	0	0
657969	2.074000e+00	-5.176983e+01	1.241641e+00	0	0
659922	2.074000e+00	-2.556456e+01	1.380436e+00	0	0
661875	2.074000e+00	-2.176050e+01	1.555430e+00	0	0
663828	2.074000e+00	-1.863848e+01	1.763857e+00	0	0
665781	2.074000e+00	-3.232736e+01	2.006383e+00	0	0
667734	2.074000e+00	-5.861730e+01	2.165803e+00	0	0
669688	2.074000e+00	-6.730828e+01	2.107600e+00	0	0
671641	2.074000e+00	-9.294345e+01	2.025877e+00	0	0
673594	2.074000e+00	-9.511988e+01	1.953205e+00	0	0
675547	2.074000e+00	-9.512893e+01	1.797696e+00	0	0
677500	2.074000e+00	-7.397324e+01	1.622012e+00	0	0
679453	2.074000e+00	-5.806786e+01	1.457387e+00	0	0
681406	2.074000e+00	-5.710938e+01	1.304186e+00	0	0
683359	2.074000e+00	-6.929483e+01	1.163144e+00	0	0
685313	2.074000e+00	-7.320371e+01	1.034820e+00	0	0
687266	2.074000e+00	-6.497623e+01	9.200225e-01	0	0
689219	2.074000e+00	-6.352989e+01	8.192489e-01	0	0
691172	2.074000e+00	-8.220568e+01	7.334571e-01	0	0
693125	2.074000e+00	-9.779440e+01	6.621463e-01	0	0
695078	2.074000e+00	-9.222718e+01	6.252163e-01	0	0
697031	2.073114e+00	-7.629262e+01	6.377626e-01	0	0
698984	2.073886e+00	-7.830740e+01	6.470517e-01	0	0
700938	2.073114e+00	-7.906470e+01	6.449860e-01	0	0
702891	2.073000e+00	-7.331000e+01	6.396979e-01	0	0
704844	2.073886e+00	-8.830121e+01	5.583299e-01	0	0
706797	2.074000e+00	-8.393225e+01	3.937473e-01	0	0
708750	2.073114e+00	-8.598553e+01	-1.922968e-01	0	0
710703	2.073000e+00	-1.058061e+02	-5.977658e-01	0	0
712656	2.073886e+00	-1.108350e+02	-5.605515e-01	0	0
714609	2.073114e+00	-1.073071e+02	1.884798e-01	0	0
716563	2.073000e+00	-1.028400e+02	3.095554e-01	0	0
718516	2.073000e+00	-8.841424e+01	2.941645e-01	0	0
720469	2.073000e+00	-7.080085e+01	2.974991e-01	0	0
722422	2.073000e+00	-7.167600e+01	2.970197e-01	0	0
724375	2.073000e+00	-7.858836e+01	2.929929e-01	0	0
726328	2.073000e+00	-9.624811e+01	4.672386e-01	0	0
728281	2.073000e+00	-1.026411e+02	1.165151e+00	0	0
730234	2.073000e+00	-1.090000e+02	1.453679e+00	0	0
732188	2.073000e+00	-1.169864e+02	2.031099e+00	0	0
734141	2.073000e+00	-1.091655e+02	3.463603e+00	0	0
736094	2.073000e+00	-1.023133e+02	4.984006e+00	0	0
738047	2.073000e+00	-8.960551e+01	5.004201e+00	0	0
740000	2.073000e+00	-7.326231e+01	2.278074e+00	0	0
741953	2.073000e+00	-6.005213e+01	3.856638e-01	0	0
743906	2.073000e+00	-7.388678e+01	2.206159e-01	0	0
745859	2.073000e+00	-8.745767e+01	4.834220e-01	0	0
747813	2.073000e+00	-1.152374e+02	-3.247680e+00	0	0
749766	2.073000e+00	-1.333098e+02	-7.048553e+00	0	0
751719	2.073000e+00	-1.285885e+02	-8.718302e+00	0	0
753672	2.073000e+00	-1.233364e+02	-8.098563e+00	0	0
755625	2.073000e+00	-1.293279e+02	-5.050585e+00	0	0
757578	2.073000e+00	-9.444906e+01	-6.594466e-02	0	0
759531	2.073000e+00	-7.261546e+01	3.245310e-01	0	0
761484	2.073000e+00	-5.857921e+01	1.485481e-01	0	0
763438	2.073000e+00	-5.343143e+01	1.103148e+00	0	0
765391	2.073000e+00	-7.447214e+01	4.830741e+00	0	0
767344	2.073000e+00	-8.113936e+01	7.360194e+00	0	0
769297	2.073000e+00	-9.433754e+01	8.260434e+00	0	0
771250	2.073000e+00	-9.798270e+01	7.809523e+00	0	0
773203	2.073000e+00	-1.110133e+02	6.127212e+00	0	0
775156	2.073000e+00	-9.374170e+01	3.337931e+00	0	0
777109	2.073000e+00	-9.777881e+01	1.078976e-01	0	0
779063	2.073000e+00	-8.106533e+01	-1.685816e-01	0	0
781016	2.073000e+00	-7.638070e+01	-1.629708e-01	0	0
782969	2.073000e+00	-7.836035e+01	-1.213731e-01	0	0
784922	2.073000e+00	-8.089727e+01	-1.727378e+00	0	0
786875	2.073000e+00	-8.161936e+01	-3.772348e+00	0	0
788828	2.073000e+00	-9.445478e+01	-4.738257e+00	0	0
790781	2.073000e+00	-9.104983e+01	-4.618290e+00	0	0
792734	2.073000e+00	-9.665072e+01	-3.585160e+00	0	0
794688	2.073000e+00	-8.443919e+01	-1.570763e+00	0	0
796641	2.073000e+00	-8.171657e+01	-4.779858e-01	0	0
798594	2.073000e+00	-7.933159e+01	-4.599139e-01	0	0
800547	2.073000e+00	-6.481215e+01	-5.111111e-01	0	0
802500	2.073000e+00	-7.584028e+01	-5.325308e-01	0	0
804453	2.073000e+00	-7.187655e+01	-6.046305e-01	0	0
806406	2.073000e+00	-6.916277e+01	-1.671788e-02	0	0
808359	2.073000e+00	-8.912015e+01	7.074467e-01	0	0
810313	2.073000e+00	-1.138928e+02	5.244671e-01	0	0
812266	2.073000e+00	-1.093229e+02	-3.943260e-01	0	0
814219	2.073000e+00	-1.128620e+02	-4.712792e-01	0	0
816172	2.073000e+00	-9.978274e+01	-4.838092e-01	0	0
818125	2.073000e+00	-9.231227e+01	-5.626966e-01	0	0
820078	2.073000e+00	-7.011691e+01	-6.871463e-01	0	0
822031	2.073000e+00	-6.362996e+01	-8.256736e-01	0	0
823984	2.073000e+00	-7.099174e+01	-1.434280e+00	0	0
825938	2.073000e+00	-8.514697e+01	-1.668301e+00	0	0
827891	2.073000e+00	-8.497721e+01	-6.356787e-01	0	0
829844	2.073000e+00	-1.030079e+02	8.191936e-01	0	0
831797	2.073000e+00	-1.255960e+02	9.872116e-01	0	0
833750	2.073000e+00	-1.284001e+02	7.631732e-01	0	0
835703	2.073000e+00	-1.277421e+02	3.739705e-01	0	0
837656	2.073000e+00	-1.275431e+02	-4.226533e-01	0	0
839609	2.073000e+00	-1.033912e+02	9.701382e-01	0	0
841563	2.072109e+00	-9.918881e+01	1.998846e+00	0	0
843516	2.072891e+00	-1.000907e+02	1.495158e+00	0	0
845469	2.072109e+00	-1.081155e+02	-6.286775e-01	0	0
847422	2.072000e+00	-1.159908e+02	-1.275230e+00	0	0
849375	2.072891e+00	-1.286709e+02	-1.305191e+00	0	0
851328	2.072109e+00	-1.185262e+02	-1.298045e+00	0	0
853281	2.072000e+00	-1.145349e+02	-2.039713e+00	0	0
855234	2.072000e+00	-1.135659e+02	-3.940291e+00	0	0
857188	2.072000e+00	-1.042730e+02	-7.295540e+00	0	0
859141	2.072000e+00	-8.511761e+01	-9.259567e+00	0	0
861094	2.072000e+00	-7.344400e+01	-9.391687e+00	0	0
863047	2.072000e+00	-8.835567e+01	-7.750555e+00	0	0
865000	2.072000e+00	-9.997463e+01	-6.937313e+00	0	0
866953	2.072000e+00	-1.254167e+02	-6.972301e+00	0	0
868906	2.072000e+00	-1.392892e+02	-6.840152e+00	0	0
870859	2.072000e+00	-1.378223e+02	-6.538264e+00	0	0
872813	2.072000e+00	-1.279771e+02	-5.198169e+00	0	0
874766	2.072000e+00	-1.444692e+02	-3.047223e+00	0	0
876719	2.072000e+00	-1.227510e+02	-1.933455e+00	0	0
878672	2.072000e+00	-1.165572e+02	-1.487924e+00	0	0
880625	2.072000e+00	-1.322004e+02	-1.191804e+00	0	0
882578	2.072000e+00	-1.176919e+02	-1.606417e+00	0	0
884531	2.072000e+00	-1.304765e+02	-1.667601e+00	0	0
886484	2.072000e+00	-1.329286e+02	-1.665876e+00	0	0
888438	2.072000e+00	-1.370864e+02	-1.682703e+00	0	0
890391	2.072000e+00	-1.524918e+02	-1.681743e+00	0	0
892344	2.072000e+00	-1.418737e+02	-1.574587e+00	0	0
894297	2.072000e+00	-1.479512e+02	-1.760453e-01	0	0
896250	2.072000e+00	-1.208017e+02	3.925171e-01	0	0
898203	2.072000e+00	-1.082039e+02	8.003923e-02	0	0
900156	2.072000e+00	-1.083789e+02	6.944448e-01	0	0
902109	2.072000e+00	-1.035168e+02	2.272769e+00	0	0
904063	2.072000e+00	-1.101510e+02	3.589527e+00	0	0
906016	2.072000e+00	-1.267701e+02	3.507280e+00	0	0
907969	2.072000e+00	-1.372445e+02	3.032847e+00	0	0
909922	2.072000e+00	-1.370460e+02	2.356072e+00	0	0
911875	2.072000e+00	-1.408660e+02	1.293502e+00	0	0
913828	2.072000e+00	-1.586361e+02	1.914659e+00	0	0
915781	2.072000e+00	-1.469660e+02	3.005255e+00	0	0
917734	2.072000e+00	-1.286919e+02	3.348166e+00	0	0
919688	2.072000e+00	-1.174442e+02	1.409752e+00	0	0
921641	2.072000e+00	-1.221701e+02	-1.520318e+00	0	0
923594	2.072000e+00	-1.328225e+02	-1.750650e+00	0	0
925547	2.072000e+00	-1.407133e+02	-1.623725e+00	0	0
927500	2.072000e+00	-1.507919e+02	-3.162731e+00	0	0
929453	2.072000e+00	-1.411671e+02	-7.210853e+00	0	0
931406	2.072000e+00	-1.545999e+02	-9.447636e+00	0	0
933359	2.072000e+00	-1.703677e+02	-9.174929e+00	0	0
935313	2.072000e+00	-1.678285e+02	-5.644420e+00	0	0
937266	2.072000e+00	-1.621215e+02	-4.483017e+00	0	0
939219	2.072000e+00	-1.364956e+02	-3.674555e+00	0	0
941172	2.072000e+00	-1.379288e+02	-2.464902e+00	0	0
943125	2.072000e+00	-1.456021e+02	-1.627869e+00	0	0
945078	2.072000e+00	-1.395639e+02	-1.565511e+00	0	0
947031	2.072000e+00	-1.466404e+02	-1.564821e+00	0	0
948984	2.072000e+00	-1.549017e+02	-1.547232e+00	0	0
950938	2.072000e+00	-1.694905e+02	-1.533691e+00	0	0
952891	2.072000e+00	-1.643109e+02	-1.518146e+00	0	0
954844	2.072000e+00	-1.724962e+02	-1.442165e+00	0	0
956797	2.072000e+00	-1.515771e+02	-1.103274e+00	0	0
958750	2.072000e+00	-1.493898e+02	-1.191230e+00	0	0
960703	2.072000e+00	-1.427143e+02	-1.439824e+00	0	0
962656	2.072000e+00	-1.340468e+02	-1.441279e+00	0	0
964609	2.072000e+00	-1.449336e+02	-1.419090e+00	0	0
966563	2.072000e+00	-1.525032e+02	-1.402703e+00	0	0
968516	2.072000e+00	-1.723136e+02	-1.384343e+00	0	0
970469	2.072000e+00	-1.707377e+02	-1.366100e+00	0	0
972422	2.072000e+00	-1.774845e+02	-1.347430e+00	0	0
974375	2.072000e+00	-1.613271e+02	-1.328493e+00	0	0
976328	2.072000e+00	-1.584749e+02	-1.309263e+00	0	0
978281	2.072000e+00	-1.454674e+02	-1.289766e+00	0	0
980234	2.071105e+00	-1.283202e+02	-1.269997e+00	0	0
982188	2.071896e+00	-1.301636e+02	-1.250011e+00	0	0
984141	2.071104e+00	-1.360361e+02	-1.229654e+00	0	0
986094	2.071896e+00	-1.606653e+02	-1.209617e+00	0	0
988047	2.072000e+00	-1.644310e+02	-1.187351e+00	0	0
990000	2.071104e+00	-1.693551e+02	-1.172422e+00	0	0
991953	2.071896e+00	-1.735732e+02	-1.129189e+00	0	0
993906	2.071104e+00	-1.817061e+02	-1.190730e+00	0	0
995859	2.071000e+00	-1.655378e+02	2.035495e-01	0	0
997813	2.071896e+00	-1.750949e+02	1.435544e+00	0	0
999766	2.071104e+00	-1.512402e+02	1.320706e+00	0	0
1001719	2.071000e+00	-1.241103e+02	-2.359549e-01	0	0
1003672	2.071000e+00	-1.279365e+02	-9.963129e-01	0	0
1005625	2.071000e+00	-1.193229e+02	-1.002580e+00	0	0
1007578	2.071000e+00	-1.198336e+02	-9.635511e-01	0	0
1009531	2.071000e+00	-9.286593e+01	-1.049946e+00	0	0
1011484	2.071000e+00	-8.502848e+01	-1.224761e+00	0	0
1013438	2.071000e+00	-6.983284e+01	-3.388527e+00	0	0
1015391	2.071000e+00	-5.903704e+01	-4.548654e+00	0	0
1017344	2.071000e+00	-3.832113e+01	-4.230137e+00	0	0
1019297	2.071000e+00	-2.418574e+01	-2.725806e+00	0	0
1021250	2.071000e+00	-1.387254e+01	-1.352990e+00	0	0
1023203	2.071000e+00	-1.533640e+00	-1.263146e+00	0	0
1025156	2.071000e+00	-2.734887e+01	-1.279437e+00	0	0
1027109	2.071000e+00	-2.621911e+01	-1.272985e+00	0	0
1029063	2.071000e+00	-3.754419e+01	-1.253660e+00	0	0
1031016	2.071000e+00	-4.434129e+01	-1.249136e+00	0	0
1032969	2.071000e+00	-3.944039e+01	-5.848097e-02	0	0
1034922	2.071000e+00	-2.599691e+01	2.178078e-01	0	0
1036875	2.071000e+00	5.406701e-01	-1.038098e+00	0	0
1038828	2.071000e+00	1.368229e+01	-1.210931e+00	0	0
1040781	2.071000e+00	3.289940e+01	-1.162781e+00	0	0
1042734	2.071000e+00	3.390129e+01	-1.141295e+00	0	0
1044688	2.071000e+00	3.385628e+01	-1.108405e+00	0	0
1046641	2.071000e+00	5.992922e+01	-1.074392e+00	0	0
1048594	2.071000e+00	4.791225e+01	-1.036876e+00	0	0
1050547	2.071000e+00	2.280508e+01	-9.970332e-01	0	0
1052500	2.071000e+00	7.811065e+00	-9.524267e-01	0	0
1054453	2.071000e+00	-2.602164e+00	-9.004635e-01	0	0
1056406	2.071000e+00	2.588486e+00	-8.413587e-01	0	0
1058359	2.071000e+00	2.079960e+01	-7.755913e-01	0	0
1060313	2.071000e+00	5.012284e+01	-7.035487e-01	0	0
1062266	2.071000e+00	4.564402e+01	-6.256831e-01	0	0
1064219	2.071000e+00	1.556596e+01	-5.425812e-01	0	0
1066172	2.071000e+00	-8.246311e-01	-4.539369e-01	0	0
1068125	2.071000e+00	-9.107778e+00	-3.629131e-01	0	0
1070078	2.071000e+00	-4.647820e+01	-2.526787e-01	0	0
1072031	2.071000e+00	-7.419644e+01	-2.193765e-01	0	0
1073984	2.071000e+00	-7.793044e+01	-1.972673e-01	0	0
1075938	2.071000e+00	-8.566914e+01	-1.733671e-01	0	0
1077891	2.071000e+00	-8.929349e+01	-1.499773e-01	0	0
1079844	2.071000e+00	-9.380478e+01	-1.264869e-01	0	0
1081797	2.071000e+00	-1.101510e+02	-1.030937e-01	0	0
1083750	2.071000e+00	-1.179766e+02	-7.940673e-02	0	0
1085703	2.071000e+00	-1.514626e+02	-5.503165e-02	0	0
1087656	2.071000e+00	-1.604222e+02	-2.996717e-02	0	0
1089609	2.071000e+00	-1.904134e+02	-4.240993e-03	0	0
1091563	2.071000e+00	-1.963648e+02	2.210548e-02	0	0
1093516	2.071000e+00	-2.099658e+02	4.912799e-02	0	0
1095469	2.071000e+00	-2.076626e+02	7.639909e-02	0	0
1097422	2.071000e+00	-1.885547e+02	1.054342e-01	0	0
1099375	2.071000e+00	-1.988621e+02	1.090773e-01	0	0
1101328	2.071000e+00	-1.790474e+02	9.930181e-02	0	0
1103281	2.071000e+00	-2.055164e+02	1.295127e-01	0	0
1105234	2.071000e+00	-2.143219e+02	-4.092336e-01	0	0
1107188	2.071000e+00	-2.288837e+02	-9.979957e-01	0	0
1109141	2.071000e+00	-2.473536e+02	-1.548605e+00	0	0
1111094	2.071000e+00	-2.468522e+02	-2.084728e+00	0	0
1113047	2.071000e+00	-2.508457e+02	-2.422508e+00	0	0
1115000	2.071000e+00	-2.585595e+02	-2.646250e+00	0	0
1116953	2.071000e+00	-2.322842e+02	-2.839721e+00	0	0
1118906	2.070100e+00	-1.973019e+02	-2.773558e+00	0	0
1120859	2.070000e+00	-1.654227e+02	-2.199018e+00	0	0
1122813	2.070000e+00	-1.672509e+02	-1.199679e+00	0	0
1124766	2.070900e+00	-1.787295e+02	1.671586e-01	0	0
1126719	2.071000e+00	-1.953989e+02	1.271365e+00	0	0
1128672	2.071000e+00	-2.086000e+02	1.397246e+00	0	0
1130625	2.070100e+00	-2.231267e+02	7.140087e-01	0	0
1132578	2.070900e+00	-2.515198e+02	1.104905e+00	0	0
1134531	2.071000e+00	-2.470514e+02	1.093483e+00	0	0
1136484	2.070100e+00	-2.433464e+02	2.034043e+00	0	0
1138438	2.070000e+00	-2.316918e+02	3.343509e+00	0	0
1140391	2.070000e+00	-2.277884e+02	4.403890e+00	0	0
1142344	2.070000e+00	-2.397308e+02	4.895347e+00	0	0
1144297	2.070000e+00	-2.368407e+02	7.608942e+00	0	0
1146250	2.070000e+00	-2.254814e+02	9.069519e+00	0	0
1148203	2.070000e+00	-2.211107e+02	8.269865e+00	0	0
1150156	2.070000e+00	-2.299596e+02	5.524506e+00	0	0
1152109	2.070000e+00	-2.626004e+02	2.897059e+00	0	0
1154063	2.070000e+00	-2.546940e+02	1.344621e+00	0	0
1156016	2.070000e+00	-2.521710e+02	1.722571e-01	0	0
1157969	2.070000e+00	-2.492277e+02	1.376914e-01	0	0
1159922	2.070000e+00	-2.131519e+02	-7.714533e-01	0	0
1161875	2.070000e+00	-2.212222e+02	-2.329517e+00	0	0
1163828	2.070000e+00	-2.515870e+02	-1.946546e+00	0	0
1165781	2.070000e+00	-2.748439e+02	-7.971713e-01	0	0
1167734	2.070000e+00	-2.929164e+02	-2.075489e+00	0	0
1169688	2.070000e+00	-3.007786e+02	-3.370637e+00	0	0
1171641	2.070000e+00	-2.868815e+02	-4.394455e+00	0	0
1173594	2.070000e+00	-2.396531e+02	-5.344455e+00	0	0
1175547	2.070000e+00	-1.553783e+02	-5.977818e+00	0	0
1177500	2.070000e+00	-3.649018e+01	-6.248367e+00	0	0
1179453	2.070000e+00	6.134139e+01	-6.131252e+00	0	0
1181406	2.070000e+00	1.874766e+02	-5.602104e+00	0	0
1183359	2.070000e+00	3.660595e+02	-4.753665e+00	0	0
1185313	2.070000e+00	6.354073e+02	-3.715173e+00	0	0
1187266	2.070000e+00	8.913085e+02	-2.558806e+00	0	0
1189219	2.070000e+00	1.136782e+03	-1.236412e+00	0	0
1191172	2.070000e+00	1.403775e+03	-9.218389e-01	0	0
1193125	2.070000e+00	1.631500e+03	-8.722448e-01	0	0
1195078	2.070000e+00	1.833867e+03	-7.749723e-01	0	0
1197031	2.070000e+00	1.813606e+03	-6.571917e-01	0	0
1198984	2.070000e+00	1.717961e+03	-5.174020e-01	0	0
1200938	2.070000e+00	1.458580e+03	-3.609799e-01	0	0
1202891	2.070000e+00	1.114422e+03	-1.720194e-01	0	0
1204844	2.070000e+00	8.574109e+02	-3.478566e-03	0	0
1206797	2.070000e+00	6.592893e+02	9.196230e-01	0	0
1208750	2.070000e+00	4.936829e+02	1.649552e+00	0	0
1210703	2.070000e+00	1.900737e+02	2.202724e+00	0	0
1212656	2.070000e+00	-1.251682e+02	2.640230e+00	0	0
1214609	2.070000e+00	-2.928222e+02	2.946107e+00	0	0
1216563	2.070000e+00	-3.364843e+02	3.114286e+00	0	0
1218516	2.070000e+00	-3.549085e+02	3.139058e+00	0	0
1220469	2.070000e+00	-3.232345e+02	3.004069e+00	0	0
1222422	2.070000e+00	-2.869159e+02	2.747632e+00	0	0
1224375	2.070000e+00	-2.638922e+02	2.227153e+00	0	0
1226328	2.070000e+00	-2.433688e+02	3.546652e+00	0	0
1228281	2.070000e+00	-2.135274e+02	6.341137e+00	0	0
1230234	2.070000e+00	-1.930037e+02	8.618154e+00	0	0
1232188	2.070000e+00	-1.849447e+02	1.009835e+01	0	0
1234141	2.070000e+00	-1.766804e+02	1.036554e+01	0	0
1236094	2.070000e+00	-1.642673e+02	9.195848e+00	0	0
1238047	2.070000e+00	-1.631247e+02	6.181264e+00	0	0
1240000	2.070000e+00	-1.674755e+02	8.262240e-01	0	0
1241953	2.070000e+00	-1.511088e+02	-2.623232e-02	0	0
1243906	2.070000e+00	-1.727724e+02	5.473926e-02	0	0
1245859	2.070000e+00	-1.826944e+02	-2.014927e+00	0	0
1247813	2.070000e+00	-1.905820e+02	-6.891349e+00	0	0
1249766	2.070000e+00	-2.056618e+02	-1.063467e+01	0	0
1251719	2.070000e+00	-1.943554e+02	-1.243072e+01	0	0
1253672	2.070000e+00	-2.011629e+02	-1.205149e+01	0	0
1255625	2.070000e+00	-1.843679e+02	-9.203738e+00	0	0
1257578	2.070000e+00	-1.649407e+02	-4.037498e+00	0	0
1259531	2.069095e+00	-1.485756e+02	-5.199267e-01	0	0
1261484	2.069905e+00	-1.326038e+02	-4.115948e-01	0	0
1263438	2.069095e+00	-1.330229e+02	-8.093446e-01	0	0
1265391	2.069905e+00	-1.465560e+02	2.770808e+00	0	0
1267344	2.069095e+00	-1.742026e+02	6.409691e+00	0	0
1269297	2.069000e+00	-1.729215e+02	8.162945e+00	0	0
1271250	2.069000e+00	-1.742978e+02	7.996555e+00	0	0
1273203	2.069905e+00	-1.841117e+02	6.045424e+00	0	0
1275156	2.069095e+00	-1.684702e+02	2.452465e+00	0	0
1277109	2.069000e+00	-1.615509e+02	-1.158026e+00	0	0
1279063	2.069000e+00	-1.419646e+02	-1.102149e+00	0	0
1281016	2.069906e+00	-1.346347e+02	-9.116260e-01	0	0
1282969	2.069094e+00	-1.222079e+02	-2.103576e+00	0	0
1284922	2.069000e+00	-1.248495e+02	-5.450114e+00	0	0
1286875	2.069000e+00	-1.506072e+02	-7.410834e+00	0	0
1288828	2.069000e+00	-1.671833e+02	-7.271371e+00	0	0
1290781	2.069000e+00	-1.815968e+02	-6.310092e+00	0	0
1292734	2.069000e+00	-1.974467e+02	-4.785838e+00	0	0
1294688	2.069000e+00	-1.978810e+02	-2.684019e+00	0	0
1296641	2.069000e+00	-1.544196e+02	-2.592314e+00	0	0
1298594	2.069000e+00	-1.414588e+02	-2.686783e+00	0	0
1300547	2.069000e+00	-1.172860e+02	-2.732680e+00	0	0
1302500	2.069000e+00	-1.067361e+02	-2.792267e+00	0	0
1304453	2.069000e+00	-1.046932e+02	-2.848989e+00	0	0
1306406	2.069000e+00	-1.081715e+02	-2.906375e+00	0	0
1308359	2.069000e+00	-1.100948e+02	-2.966464e+00	0	0
1310313	2.069000e+00	-1.314915e+02	-3.017224e+00	0	0
1312266	2.069000e+00	-1.364726e+02	-3.166845e+00	0	0
1314219	2.069000e+00	-1.357047e+02	-3.017103e+00	0	0
1316172	2.069000e+00	-1.287276e+02	-2.747564e+00	0	0
1318125	2.069000e+00	-1.119186e+02	-3.224223e+00	0	0
1320078	2.069000e+00	-1.175803e+02	-3.325933e+00	0	0
1322031	2.069000e+00	-9.660857e+01	-3.373243e+00	0	0
1323984	2.069000e+00	-1.027214e+02	-3.434441e+00	0	0
1325938	2.069000e+00	-9.674005e+01	-3.488914e+00	0	0
1327891	2.069000e+00	-9.438478e+01	-3.525336e+00	0	0
1329844	2.069000e+00	-1.105346e+02	-3.643705e+00	0	0
1331797	2.069000e+00	-1.040051e+02	-3.591995e+00	0	0
1333750	2.069000e+00	-1.088681e+02	-3.595817e+00	0	0
1335703	2.069000e+00	-9.956358e+01	-3.601918e+00	0	0
1337656	2.069000e+00	-1.089299e+02	-3.596497e+00	0	0
1339609	2.069000e+00	-1.060914e+02	-3.583861e+00	0	0
1341563	2.069000e+00	-6.691000e+01	-3.563470e+00	0	0
1343516	2.069000e+00	-7.380175e+01	-3.536117e+00	0	0
1345469	2.069000e+00	-7.499132e+01	-3.502196e+00	0	0
1347422	2.069000e+00	-7.192987e+01	-3.462230e+00	0	0
1349375	2.069000e+00	-8.141673e+01	-3.415495e+00	0	0
1351328	2.069000e+00	-8.617684e+01	-3.363600e+00	0	0
1353281	2.069000e+00	-9.454978e+01	-3.307166e+00	0	0
1355234	2.069000e+00	-6.932681e+01	-3.246659e+00	0	0
1357188	2.069000e+00	-5.642423e+01	-3.182532e+00	0	0
1359141	2.069000e+00	-4.816051e+01	-3.115398e+00	0	0
1361094	2.069000e+00	-2.176090e+01	-3.045518e+00	0	0
1363047	2.069000e+00	-2.141986e+01	-2.974137e+00	0	0
1365000	2.069000e+00	-3.189201e+01	-2.887922e+00	0	0
1366953	2.069000e+00	-2.234599e+01	-2.780387e+00	0	0
1368906	2.069000e+00	-2.677359e+01	-2.671167e+00	0	0
1370859	2.069000e+00	-4.431887e+01	-2.558746e+00	0	0
1372813	2.069000e+00	-5.058316e+01	-2.439625e+00	0	0
1374766	2.069000e+00	-7.260002e+01	-2.307503e+00	0	0
1376719	2.069000e+00	-3.794074e+01	-2.155439e+00	0	0
1378672	2.069000e+00	-2.474073e+01	-1.984645e+00	0	0
1380625	2.069000e+00	-2.352494e+00	-1.797029e+00	0	0
1382578	2.069000e+00	1.754266e+01	-1.594080e+00	0	0
1384531	2.069000e+00	3.427566e+01	-1.378266e+00	0	0
1386484	2.069000e+00	4.276755e+01	-1.136547e+00	0	0
1388438	2.069000e+00	4.168029e+01	-8.544577e-01	0	0
1390391	2.069000e+00	4.192978e+01	-5.347905e-01	0	0
1392344	2.069000e+00	3.568053e+01	-1.808049e-01	0	0
1394297	2.069000e+00	4.612690e+01	2.037655e-01	0	0
1396250	2.069000e+00	4.523022e+01	6.278461e-01	0	0
1398203	2.069000e+00	6.113378e+01	1.070837e+00	0	0
1400156	2.069000e+00	7.369827e+01	1.555006e+00	0	0
1402109	2.068090e+00	8.904359e+01	1.642688e+00	0	0
1404063	2.068910e+00	8.381299e+01	1.321173e+00	0	0
1406016	2.069000e+00	8.958280e+01	1.021832e+00	0	0
1407969	2.069000e+00	1.005805e+02	7.783638e-01	0	0
1409922	2.068090e+00	1.121725e+02	5.674621e-01	0	0
1411875	2.068910e+00	1.308416e+02	6.436623e-01	0	0
1413828	2.069000e+00	1.655696e+02	1.118142e+00	0	0
1415781	2.068090e+00	1.684752e+02	1.654900e+00	0	0
1417734	2.068000e+00	1.984769e+02	2.227288e+00	0	0
1419688	2.068000e+00	2.172558e+02	2.821512e+00	0	0
1421641	2.068000e+00	2.336579e+02	3.497977e+00	0	0
1423594	2.068000e+00	2.530451e+02	3.343540e+00	0	0
1425547	2.068000e+00	2.568886e+02	3.025012e+00	0	0
1427500	2.068000e+00	2.513127e+02	2.429561e+00	0	0
1429453	2.068000e+00	2.278000e+02	1.787091e+00	0	0
1431406	2.068000e+00	2.328273e+02	1.128716e+00	0	0
1433359	2.068000e+00	2.521397e+02	5.570294e-01	0	0
1435313	2.068000e+00	2.944162e+02	2.448561e-02	0	0
1437266	2.068000e+00	2.931404e+02	-5.567727e-01	0	0
1439219	2.068000e+00	3.190825e+02	-1.245667e+00	0	0
1441172	2.068000e+00	3.385955e+02	-2.049001e+00	0	0
1443125	2.068000e+00	3.578966e+02	-2.950644e+00	0	0
1445078	2.068000e+00	3.755698e+02	-3.992351e+00	0	0
1447031	2.068000e+00	3.715806e+02	-4.548657e+00	0	0
1448984	2.068000e+00	3.768839e+02	-5.097775e+00	0	0
1450938	2.068000e+00	3.764418e+02	-5.435243e+00	0	0
1452891	2.068000e+00	3.937360e+02	-4.479554e+00	0	0
1454844	2.068000e+00	3.987290e+02	-3.868827e+00	0	0
1456797	2.068000e+00	4.016409e+02	-3.804708e+00	0	0
1458750	2.068000e+00	4.025798e+02	-4.582014e+00	0	0
1460703	2.068000e+00	4.286366e+02	-3.381173e+00	0	0
1462656	2.068000e+00	4.332244e+02	2.280395e-01	0	0
1464609	2.068000e+00	4.047614e+02	5.248328e+00	0	0
1466563	2.068000e+00	4.031377e+02	3.769246e+00	0	0
1468516	2.068000e+00	3.814087e+02	-3.264388e+00	0	0
1470469	2.068000e+00	3.547893e+02	-8.364519e+00	0	0
1472422	2.068000e+00	3.272668e+02	-8.918526e+00	0	0
1474375	2.068000e+00	3.023541e+02	-8.382926e+00	0	0
1476328	2.068000e+00	2.678079e+02	-7.065825e+00	0	0
1478281	2.068000e+00	2.598557e+02	-4.616796e+00	0	0
1480234	2.068000e+00	2.310003e+02	-1.406036e+00	0	0
1482188	2.068000e+00	1.932949e+02	1.529587e+00	0	0
1484141	2.068000e+00	1.787354e+02	3.894370e+00	0	0
1486094	2.068000e+00	1.436564e+02	5.049959e+00	0	0
1488047	2.068000e+00	1.346411e+02	1.143570e+01	0	0
1490000	2.068000e+00	9.726316e+01	1.361334e+01	0	0
1491953	2.068000e+00	5.996088e+01	2.595418e+01	0	0
1493906	2.068000e+00	3.526458e+01	4.543247e+01	0	0
1495859	2.068000e+00	1.085394e+00	7.512115e+01	0	0
1497813	2.068000e+00	6.082316e+00	6.845553e+01	0	0
1499766	2.068000e+00	-3.785517e+00	1.377025e+01	0	0
1501719	2.068000e+00	-1.040466e+01	-4.493331e+01	0	0
1503672	2.068000e+00	-1.492546e+01	-1.115889e+02	0	0
1505625	2.068000e+00	-5.288359e+01	-1.388850e+02	0	0
1507578	2.068000e+00	-8.587305e+01	-1.132825e+02	0	0
1509531	2.068000e+00	-9.942286e+01	-6.188260e+01	0	0
1511484	2.068000e+00	-1.200974e+02	-1.941721e+01	0	0
1513438	2.068000e+00	-1.730768e+02	2.967573e+01	0	0
1515391	2.068000e+00	-1.681959e+02	5.647722e+01	0	0
1517344	2.068000e+00	-1.565084e+02	4.772456e+01	0	0
1519297	2.068000e+00	-1.621018e+02	1.738394e+01	0	0
1521250	2.068000e+00	-1.525670e+02	8.844862e+00	0	0
1523203	2.068000e+00	-1.633485e+02	-9.686623e+00	0	0
1525156	2.068000e+00	-1.648957e+02	-2.398594e+01	0	0
1527109	2.068000e+00	-1.767566e+02	-2.990128e+01	0	0
1529063	2.068000e+00	-2.005851e+02	-2.348603e+01	0	0
1531016	2.068000e+00	-2.268259e+02	-4.850730e+00	0	0
1532969	2.068000e+00	-2.418358e+02	1.338417e+01	0	0
1534922	2.068000e+00	-2.426088e+02	3.515054e+01	0	0
1536875	2.068000e+00	-2.527733e+02	6.695163e+01	0	0
1538828	2.068000e+00	-2.077298e+02	4.861287e+01	0	0
1540781	2.068000e+00	-1.910596e+02	-2.116149e+01	0	0
1542734	2.068000e+00	-1.948114e+02	-8.587103e+01	0	0
1544688	2.068000e+00	-1.858408e+02	-1.299854e+02	0	0
1546641	2.068000e+00	-1.991564e+02	-1.166981e+02	0	0
1548594	2.067084e+00	-2.068826e+02	-6.555669e+01	0	0
1550547	2.067916e+00	-2.292319e+02	-1.758531e+01	0	0
1552500	2.068000e+00	-2.252441e+02	3.578567e+01	0	0
1554453	2.067084e+00	-2.338323e+02	6.661818e+01	0	0
1556406	2.067916e+00	-2.367140e+02	4.943540e+01	0	0
1558359	2.068000e+00	-2.202006e+02	1.350282e+01	0	0
1560313	2.067084e+00	-2.147357e+02	-2.184339e+00	0	0
1562266	2.067000e+00	-2.066814e+02	-2.363208e+01	0	0
1564219	2.067000e+00	-2.290533e+02	-3.344528e+01	0	0
1566172	2.067000e+00	-2.159751e+02	-2.904582e+01	0	0
1568125	2.067000e+00	-2.395272e+02	-1.579855e+01	0	0
1570078	2.067916e+00	-2.687522e+02	6.240281e+00	0	0
1572031	2.067084e+00	-2.809524e+02	1.760358e+01	0	0
1573984	2.067000e+00	-2.917980e+02	4.548627e+01	0	0
1575938	2.067000e+00	-2.770428e+02	8.003272e+01	0	0
1577891	2.067000e+00	-2.415811e+02	7.858389e+01	0	0
1579844	2.067000e+00	-2.143788e+02	1.725569e+01	0	0
1581797	2.067000e+00	-1.868768e+02	-5.345256e+01	0	0
1583750	2.067000e+00	-1.696365e+02	-1.325119e+02	0	0
1585703	2.067000e+00	-1.748902e+02	-1.694070e+02	0	0
1587656	2.067000e+00	-1.957613e+02	-1.426352e+02	0	0
1589609	2.067000e+00	-2.071433e+02	-7.745361e+01	0	0
1591563	2.067000e+00	-2.139924e+02	-1.850764e+01	0	0
1593516	2.067000e+00	-2.295055e+02	4.278837e+01	0	0
1595469	2.067000e+00	-2.202523e+02	7.306419e+01	0	0
1597422	2.067000e+00	-2.090498e+02	6.550964e+01	0	0
1599375	2.067000e+00	-2.037561e+02	3.310790e+01	0	0
1601328	2.067000e+00	-2.146435e+02	8.703339e+00	0	0
1603281	2.067000e+00	-2.196418e+02	6.727807e+00	0	0
1605234	2.067000e+00	-2.385419e+02	-1.471911e+00	0	0
1607188	2.067000e+00	-2.388816e+02	-5.641404e+00	0	0
1609141	2.067000e+00	-2.618992e+02	-9.084568e+00	0	0
1611094	2.067000e+00	-2.583133e+02	-1.052978e+01	0	0
1613047	2.067000e+00	-2.584415e+02	-1.116727e+01	0	0
1615000	2.067000e+00	-2.382261e+02	-1.143913e+01	0	0
1616953	2.067000e+00	-2.337474e+02	-1.107804e+01	0	0
1618906	2.067000e+00	-2.169481e+02	-9.829054e+00	0	0
1620859	2.067000e+00	-2.222208e+02	-4.147548e+00	0	0
1622813	2.067000e+00	-2.190928e+02	4.700249e+00	0	0
1624766	2.067000e+00	-2.242023e+02	8.854895e+00	0	0
1626719	2.067000e+00	-2.285991e+02	1.310608e+01	0	0
1628672	2.067000e+00	-2.337814e+02	1.276112e+01	0	0
1630625	2.067000e+00	-2.412488e+02	1.145358e+01	0	0
1632578	2.067000e+00	-2.351107e+02	1.123068e+01	0	0
1634531	2.067000e+00	-2.291208e+02	1.221141e+01	0	0
1636484	2.067000e+00	-2.201058e+02	1.401984e+01	0	0
1638438	2.067000e+00	-2.113518e+02	1.367943e+01	0	0
1640391	2.067000e+00	-1.768468e+02	1.211574e+01	0	0
1642344	2.067000e+00	-1.744965e+02	1.055497e+01	0	0
1644297	2.067000e+00	-1.834097e+02	1.009485e+01	0	0
1646250	2.067000e+00	-1.889942e+02	1.119348e+01	0	0
1648203	2.067000e+00	-1.941184e+02	1.189877e+01	0	0
1650156	2.067000e+00	-2.005524e+02	1.207999e+01	0	0
1652109	2.067000e+00	-2.182710e+02	1.175724e+01	0	0
1654063	2.067000e+00	-2.411540e+02	1.033288e+01	0	0
1656016	2.067000e+00	-2.362151e+02	8.464888e+00	0	0
1657969	2.067000e+00	-2.167240e+02	6.707225e+00	0	0
1659922	2.067000e+00	-1.966046e+02	5.785498e+00	0	0
1661875	2.067000e+00	-2.200150e+02	4.940762e+00	0	0
1663828	2.067000e+00	-2.049693e+02	4.106060e+00	0	0
1665781	2.067000e+00	-2.035607e+02	3.316790e+00	0	0
1667734	2.067000e+00	-1.997049e+02	2.538126e+00	0	0
1669688	2.067000e+00	-2.185819e+02	1.913481e+00	0	0
1671641	2.067000e+00	-2.175074e+02	-5.544451e-01	0	0
1673594	2.067000e+00	-2.243172e+02	-2.980586e+00	0	0
1675547	2.067000e+00	-2.112716e+02	-4.352145e+00	0	0
1677500	2.067000e+00	-1.859113e+02	-4.121584e+00	0	0
1679453	2.067000e+00	-1.771453e+02	-2.541267e+00	0	0
1681406	2.067000e+00	-1.691085e+02	-1.147584e+00	0	0
1683359	2.067000e+00	-1.693079e+02	-1.353785e+00	0	0
1685313	2.067000e+00	-1.876985e+02	-1.636029e+00	0	0
1687266	2.067000e+00	-1.896553e+02	-1.862646e+00	0	0
1689219	2.067000e+00	-2.021922e+02	-2.070119e+00	0	0
1691172	2.067000e+00	-2.217560e+02	-2.249622e+00	0	0
1693125	2.067000e+00	-2.286490e+02	-2.406537e+00	0	0
1695078	2.067000e+00	-2.264948e+02	-2.534471e+00	0	0
1697031	2.067000e+00	-2.297935e+02	-2.659918e+00	0	0
1698984	2.067000e+00	-2.292664e+02	-2.358884e+00	0	0
1700938	2.067000e+00	-2.081249e+02	-1.888280e+00	0	0
1702891	2.067000e+00	-2.123118e+02	-1.509298e+00	0	0
1704844	2.067000e+00	-2.139048e+02	9.264537e-01	0	0
1706797	2.067000e+00	-2.407011e+02	3.441349e+00	0	0
1708750	2.066079e+00	-2.435486e+02	4.837790e+00	0	0
1710703	2.066000e+00	-2.442618e+02	4.622708e+00	0	0
1712656	2.066000e+00	-2.492837e+02	3.285011e+00	0	0
1714609	2.066000e+00	-2.361556e+02	6.253799e-01	0	0
1716563	2.066000e+00	-2.312506e+02	2.620151e-01	0	0
1718516	2.066000e+00	-2.226013e+02	3.757954e-01	0	0
1720469	2.066000e+00	-1.933160e+02	5.137338e-01	0	0
1722422	2.066000e+00	-1.889575e+02	8.467858e-01	0	0
1724375	2.066000e+00	-1.970838e+02	-3.069548e-01	0	0
1726328	2.066000e+00	-1.974740e+02	-1.672084e+00	0	0
1728281	2.066000e+00	-2.096057e+02	-1.661629e+00	0	0
1730234	2.066000e+00	-2.272266e+02	-2.869569e-01	0	0
1732188	2.066000e+00	-2.263945e+02	-4.531162e-01	0	0
1734141	2.066000e+00	-2.373371e+02	-7.523014e-01	0	0
1736094	2.066000e+00	-2.381523e+02	-5.314966e-01	0	0
1738047	2.066000e+00	-2.247924e+02	-7.686858e-02	0	0
1740000	2.066000e+00	-2.121004e+02	3.378249e-01	0	0
1741953	2.066000e+00	-2.221937e+02	6.867757e-01	0	0
1743906	2.066000e+00	-2.335380e+02	9.590109e-01	0	0
1745859	2.066000e+00	-2.354611e+02	1.144249e+00	0	0
1747813	2.066000e+00	-2.368180e+02	1.214778e+00	0	0
1749766	2.066000e+00	-2.564186e+02	1.381062e+00	0	0
1751719	2.066000e+00	-2.473749e+02	1.415910e+00	0	0
1753672	2.066000e+00	-2.514643e+02	1.137449e+00	0	0
1755625	2.066000e+00	-2.526007e+02	5.160342e-01	0	0
1757578	2.066000e+00	-2.273752e+02	2.173971e-01	0	0
1759531	2.066000e+00	-2.200674e+02	-5.825043e-02	0	0
1761484	2.066000e+00	-2.006373e+02	-3.434176e-01	0	0
1763438	2.066000e+00	-1.983538e+02	-6.255238e-01	0	0
1765391	2.066000e+00	-2.299729e+02	-9.009100e-01	0	0
1767344	2.066000e+00	-2.203621e+02	-1.173984e+00	0	0
1769297	2.066000e+00	-2.354262e+02	-1.519957e+00	0	0
1771250	2.066000e+00	-2.351016e+02	-2.799893e+00	0	0
1773203	2.066000e+00	-2.402726e+02	-3.851184e+00	0	0
1775156	2.066000e+00	-2.433828e+02	-4.503114e+00	0	0
1777109	2.066000e+00	-2.266397e+02	-4.718163e+00	0	0
1779063	2.066000e+00	-2.238917e+02	-4.283655e+00	0	0
1781016	2.066000e+00	-2.075945e+02	-3.386069e+00	0	0
1782969	2.066000e+00	-2.142714e+02	-2.366375e+00	0	0
1784922	2.066000e+00	-2.349301e+02	-2.328313e+00	0	0
1786875	2.066000e+00	-2.643678e+02	-2.356279e+00	0	0
1788828	2.066000e+00	-2.867654e+02	-2.364642e+00	0	0
1790781	2.066000e+00	-2.931038e+02	-2.377304e+00	0	0
1792734	2.066000e+00	-2.816038e+02	-2.383777e+00	0	0
1794688	2.066000e+00	-2.746311e+02	-2.245563e+00	0	0
1796641	2.066000e+00	-2.287628e+02	-1.157951e+00	0	0
1798594	2.066000e+00	-2.124338e+02	-2.202468e-01	0	0
1800547	2.066000e+00	-1.820739e+02	4.069089e-01	0	0
1802500	2.066000e+00	-1.773120e+02	7.572754e-01	0	0
1804453	2.066000e+00	-2.046613e+02	8.458087e-01	0	0
1806406	2.066000e+00	-1.881283e+02	6.958270e-01	0	0
1808359	2.066000e+00	-2.059959e+02	3.191437e-01	0	0
1810313	2.066000e+00	-2.239523e+02	-2.566287e-01	0	0
1812266	2.066000e+00	-2.159376e+02	-1.066937e+00	0	0
1814219	2.066000e+00	-2.164417e+02	-1.287365e+00	0	0
1816172	2.066000e+00	-1.687297e+02	-1.169629e+00	0	0
1818125	2.066000e+00	-1.368001e+02	-1.044416e+00	0	0
1820078	2.066000e+00	-1.040121e+02	-9.223713e-01	0	0
1822031	2.066000e+00	-9.006826e+01	-7.995602e-01	0	0
1823984	2.066000e+00	-8.436027e+01	-6.815292e-01	0	0
1825938	2.066000e+00	-9.317198e+01	-5.503507e-01	0	0
1827891	2.066000e+00	-1.359804e+02	-7.668588e-01	0	0
1829844	2.066000e+00	-1.495440e+02	-1.364057e+00	0	0
1831797	2.066000e+00	-1.451552e+02	-1.806259e+00	0	0
1833750	2.066000e+00	-1.293065e+02	-2.035165e+00	0	0
1835703	2.066000e+00	-1.165633e+02	-2.131905e+00	0	0
1837656	2.066000e+00	-8.866278e+01	-2.037943e+00	0	0
1839609	2.066000e+00	-6.772216e+01	-1.619667e+00	0	0
1841563	2.066000e+00	-3.576823e+01	-1.837490e+00	0	0
1843516	2.066000e+00	-1.012453e+01	-1.789589e+00	0	0
1845469	2.066000e+00	-2.484930e+01	-1.862737e+00	0	0
1847422	2.066000e+00	-2.282753e+01	-1.760588e+00	0	0
1849375	2.066000e+00	-3.606557e+01	-3.254994e-01	0	0
1851328	2.065074e+00	-3.667065e+01	4.693824e-01	0	0
1853281	2.065926e+00	-2.175467e+01	4.252813e-01	0	0
1855234	2.065074e+00	-1.503011e+01	3.841871e-01	0	0
1857188	2.065000e+00	-8.943215e+00	1.942085e-01	0	0
1859141	2.065000e+00	-1.356100e+01	2.808527e+00	0	0
1861094	2.065000e+00	2.115252e+00	4.138559e+00	0	0
1863047	2.065000e+00	5.920167e+00	3.616985e+00	0	0
1865000	2.065000e+00	7.544531e+00	1.065390e+00	0	0
1866953	2.065000e+00	-1.109362e+01	3.305630e-02	0	0
1868906	2.065000e+00	-2.136392e+01	-3.319671e-02	0	0
1870859	2.065000e+00	-1.409769e+01	-3.844139e-02	0	0
1872813	2.065000e+00	-7.789241e+00	-1.097425e+00	0	0
1874766	2.065000e+00	-2.482624e+01	-3.353578e+00	0	0
1876719	2.065000e+00	-3.049020e+01	-3.856992e+00	0	0
1878672	2.065000e+00	-3.249997e+01	-2.836887e+00	0	0
1880625	2.065000e+00	-6.549999e+01	-1.144593e+00	0	0
1882578	2.065000e+00	-7.580126e+01	-2.348666e-01	0	0
1884531	2.065000e+00	-1.104277e+02	-2.192386e-01	0	0
1886484	2.065000e+00	-1.285090e+02	-1.194342e-01	0	0
1888438	2.065000e+00	-1.530504e+02	8.828048e-04	0	0
1890391	2.065000e+00	-1.833347e+02	1.111464e-01	0	0
1892344	2.065000e+00	-1.958722e+02	2.325373e-01	0	0
1894297	2.065000e+00	-2.103947e+02	4.102751e-01	0	0
1896250	2.065000e+00	-2.080447e+02	1.971955e+00	0	0
1898203	2.065000e+00	-2.039547e+02	3.003385e+00	0	0
1900156	2.065000e+00	-2.056492e+02	3.512702e+00	0	0
1902109	2.065000e+00	-2.107680e+02	3.523444e+00	0	0
1904063	2.065000e+00	-2.163483e+02	3.032861e+00	0	0
1906016	2.065000e+00	-2.246277e+02	1.769702e+00	0	0
1907969	2.065000e+00	-2.454313e+02	9.396410e-01	0	0
1909922	2.065000e+00	-2.720852e+02	9.592562e-01	0	0
1911875	2.065000e+00	-2.736043e+02	1.012085e+00	0	0
1913828	2.065000e+00	-2.684015e+02	1.046726e+00	0	0
1915781	2.065000e+00	-2.714616e+02	1.077732e+00	0	0
1917734	2.065000e+00	-2.596749e+02	6.892684e-01	0	0
1919688	2.065000e+00	-2.319992e+02	-1.414945e+00	0	0
1921641	2.065000e+00	-2.403528e+02	-2.597085e+00	0	0
1923594	2.065000e+00	-2.607684e+02	-2.626312e+00	0	0
1925547	2.065000e+00	-2.429563e+02	-1.572043e+00	0	0
1927500	2.065000e+00	-2.555677e+02	5.978387e-01	0	0
1929453	2.065000e+00	-2.794336e+02	6.302164e-01	0	0
1931406	2.065000e+00	-2.651794e+02	5.009915e-01	0	0
1933359	2.065000e+00	-2.813033e+02	4.320164e-01	0	0
1935313	2.065000e+00	-2.700876e+02	2.616088e-01	0	0
1937266	2.065000e+00	-2.742886e+02	1.934514e+00	0	0
1939219	2.065000e+00	-2.731175e+02	4.108514e+00	0	0
1941172	2.065000e+00	-2.605600e+02	5.582429e+00	0	0
1943125	2.065000e+00	-2.479005e+02	6.293807e+00	0	0
1945078	2.065000e+00	-2.603674e+02	6.107435e+00	0	0
1947031	2.065000e+00	-2.672848e+02	4.542312e+00	0	0
1948984	2.065000e+00	-2.691908e+02	1.227526e+00	0	0
1950938	2.065000e+00	-2.749763e+02	-1.114462e-01	0	0
1952891	2.065000e+00	-2.610639e+02	-1.758260e-01	0	0
1954844	2.065000e+00	-2.726559e+02	-8.502991e-02	0	0
1956797	2.065000e+00	-2.909230e+02	-2.747736e+00	0	0
1958750	2.065000e+00	-2.941598e+02	-6.550438e+00	0	0
1960703	2.065000e+00	-2.973227e+02	-8.425623e+00	0	0
1962656	2.065000e+00	-2.808833e+02	-8.281767e+00	0	0
1964609	2.065000e+00	-2.859568e+02	-6.258901e+00	0	0
1966563	2.065000e+00	-2.870790e+02	-2.203686e+00	0	0
1968516	2.065000e+00	-2.792494e+02	-2.691141e-01	0	0
1970469	2.065000e+00	-2.816726e+02	-1.871834e-01	0	0
1972422	2.065000e+00	-2.650229e+02	-3.367134e-01	0	0
1974375	2.065000e+00	-2.774686e+02	2.966525e+00	0	0
1976328	2.065000e+00	-3.025884e+02	6.214040e+00	0	0
1978281	2.065000e+00	-3.046377e+02	7.566793e+00	0	0
1980234	2.065000e+00	-2.938689e+02	7.861637e+00	0	0
1982188	2.064068e+00	-2.714198e+02	6.590255e+00	0	0
1984141	2.064932e+00	-2.438276e+02	3.771440e+00	0	0
1986094	2.065000e+00	-1.680691e+02	1.916903e+00	0	0
1988047	2.065000e+00	-5.934477e+01	2.044430e+00	0	0
1990000	2.065000e+00	3.914889e+01	2.133862e+00	0	0
1991953	2.065000e+00	1.365776e+02	1.491882e+00	0	0
1993906	2.065000e+00	2.795283e+02	-1.981888e+00	0	0
1995859	2.065000e+00	5.682209e+02	-4.361110e+00	0	0
1997813	2.064068e+00	8.300396e+02	-5.466261e+00	0	0
1999766	2.064000e+00	1.121862e+03	-6.022024e+00	0	0
2001719	2.064000e+00	1.384543e+03	-6.262804e+00	0	0
2003672	2.064000e+00	1.618362e+03	-5.536009e+00	0	0
2005625	2.064932e+00	1.805669e+03	-4.359575e+00	0	0
2007578	2.065000e+00	1.797788e+03	-2.772919e+00	0	0
2009531	2.064068e+00	1.672925e+03	-6.029166e-01	0	0
2011484	2.064000e+00	1.414109e+03	-4.894761e-01	0	0
2013438	2.064000e+00	1.067998e+03	-4.855192e-01	0	0
2015391	2.064000e+00	8.435150e+02	-4.695701e-01	0	0
2017344	2.064000e+00	6.307071e+02	6.551209e-01	0	0
2019297	2.064000e+00	4.611309e+02	3.083888e+00	0	0
2021250	2.064000e+00	1.939350e+02	3.893811e+00	0	0
2023203	2.064000e+00	-1.233383e+02	2.862554e+00	0	0
2025156	2.064000e+00	-2.779371e+02	-5.618994e-02	0	0
2027109	2.064000e+00	-3.461633e+02	-4.169139e+00	0	0
2029063	2.064000e+00	-3.978165e+02	-3.726549e+00	0	0
2031016	2.064000e+00	-4.013456e+02	-2.626404e+00	0	0
2032969	2.064000e+00	-3.573263e+02	-2.368327e+00	0	0
2034922	2.064000e+00	-3.322392e+02	-6.438546e+00	0	0
2036875	2.064000e+00	-2.963191e+02	-1.112190e+01	0	0
2038828	2.064000e+00	-2.619220e+02	-1.280366e+01	0	0
2040781	2.064000e+00	-2.299117e+02	-9.967062e+00	0	0
2042734	2.064000e+00	-2.025656e+02	-3.304527e+00	0	0
2044688	2.064000e+00	-1.813914e+02	9.869756e-01	0	0
2046641	2.064000e+00	-1.874534e+02	3.215608e+00	0	0
2048594	2.064000e+00	-1.654027e+02	1.289795e+01	0	0
2050547	2.064000e+00	-1.838105e+02	1.874244e+01	0	0
2052500	2.064000e+00	-1.748589e+02	1.974217e+01	0	0
2054453	2.064000e+00	-2.062889e+02	1.608836e+01	0	0
2056406	2.064000e+00	-1.961964e+02	7.094810e+00	0	0
2058359	2.064000e+00	-1.836468e+02	2.611221e+00	0	0
2060313	2.064000e+00	-1.884898e+02	9.346571e-01	0	0
2062266	2.064000e+00	-1.771145e+02	-7.042391e+00	0	0
2064219	2.064000e+00	-1.629311e+02	-1.212255e+01	0	0
2066172	2.064000e+00	-1.617419e+02	-1.452464e+01	0	0
2068125	2.064000e+00	-1.749970e+02	-1.610080e+01	0	0
2070078	2.064000e+00	-1.997553e+02	-1.645677e+01	0	0
2072031	2.064000e+00	-2.097410e+02	-1.599257e+01	0	0
2073984	2.064000e+00	-1.985760e+02	-1.469896e+01	0	0
2075938	2.064000e+00	-1.851333e+02	-1.252622e+01	0	0
2077891	2.064000e+00	-1.782089e+02	-9.513775e+00	0	0
2079844	2.064000e+00	-1.695843e+02	-6.475395e+00	0	0
2081797	2.064000e+00	-1.599508e+02	-4.058732e+00	0	0
2083750	2.064000e+00	-1.577003e+02	-2.232491e+00	0	0
2085703	2.064000e+00	-1.531529e+02	-9.268541e-01	0	0
2087656	2.064000e+00	-1.574006e+02	2.895768e-02	0	0
2089609	2.064000e+00	-1.585032e+02	5.521850e-01	0	0
2091563	2.064000e+00	-1.817311e+02	7.617894e-01	0	0
2093516	2.064000e+00	-1.798439e+02	9.338291e-01	0	0
2095469	2.064000e+00	-1.695383e+02	1.134722e+00	0	0
2097422	2.064000e+00	-1.556320e+02	1.158935e+00	0	0
2099375	2.064000e+00	-1.523595e+02	4.648100e+00	0	0
2101328	2.064000e+00	-1.316860e+02	8.524784e+00	0	0
2103281	2.064000e+00	-1.252662e+02	1.144024e+01	0	0
2105234	2.064000e+00	-1.263704e+02	1.310571e+01	0	0
2107188	2.064000e+00	-1.434950e+02	1.318349e+01	0	0
2109141	2.064000e+00	-1.467870e+02	1.206296e+01	0	0
2111094	2.064000e+00	-1.543548e+02	1.049942e+01	0	0
2113047	2.064000e+00	-1.541550e+02	8.660662e+00	0	0
2115000	2.064000e+00	-1.362870e+02	6.676409e+00	0	0
2116953	2.064000e+00	-1.353834e+02	4.697176e+00	0	0
2118906	2.064000e+00	-1.339263e+02	2.649235e+00	0	0
2120859	2.064000e+00	-1.191135e+02	9.274763e-01	0	0
2122813	2.064000e+00	-1.200266e+02	9.184499e-01	0	0
2124766	2.064000e+00	-1.147791e+02	1.010048e+00	0	0
2126719	2.064000e+00	-1.092447e+02	9.409961e-01	0	0
2128672	2.064000e+00	-1.071548e+02	7.906619e-01	0	0
2130625	2.064000e+00	-1.096635e+02	6.256678e-01	0	0
2132578	2.064000e+00	-1.307645e+02	4.511130e-01	0	0
2134531	2.064000e+00	-1.403784e+02	2.663757e-01	0	0
2136484	2.064000e+00	-1.294819e+02	7.232234e-02	0	0
2138438	2.064000e+00	-1.246720e+02	-1.109034e-01	0	0
2140391	2.064000e+00	-1.112721e+02	-2.140897e-01	0	0
2142344	2.064000e+00	-6.935747e+01	-3.177080e-01	0	0
2144297	2.064000e+00	-6.968160e+01	-4.283005e-01	0	0
2146250	2.064000e+00	-5.407268e+01	-5.399420e-01	0	0
2148203	2.063063e+00	-5.519960e+01	-6.692305e-01	0	0
2150156	2.063937e+00	-7.257299e+01	-7.566398e-01	0	0
2152109	2.063063e+00	-7.290675e+01	-1.894726e+00	0	0
2154063	2.063938e+00	-7.339823e+01	-3.022974e+00	0	0
2156016	2.063062e+00	-6.969449e+01	-4.014592e+00	0	0
2157969	2.063938e+00	-5.289299e+01	-4.320927e+00	0	0
2159922	2.063062e+00	-2.641440e+01	-3.566153e+00	0	0
2161875	2.063000e+00	-2.054679e+01	-1.939414e+00	0	0
2163828	2.063000e+00	-7.507980e+00	-8.156093e-01	0	0
2165781	2.063000e+00	3.981010e+00	-7.872581e-01	0	0
2167734	2.063000e+00	-1.210117e+01	-8.072015e-01	0	0
2169688	2.063000e+00	-3.389226e+01	-8.153237e-01	0	0
2171641	2.063000e+00	-3.105084e+01	-8.276234e-01	0	0
2173594	2.063000e+00	-3.323125e+01	-8.398267e-01	0	0
2175547	2.063000e+00	-4.510416e+01	-8.530358e-01	0	0
2177500	2.063000e+00	-2.893828e+01	-8.670424e-01	0	0
2179453	2.063000e+00	-1.283809e+01	-8.792621e-01	0	0
2181406	2.063000e+00	7.747326e+00	-8.891000e-01	0	0
2183359	2.063000e+00	3.053881e+01	-8.989188e-01	0	0
2185313	2.063000e+00	2.212823e+01	-9.081581e-01	0	0
2187266	2.063000e+00	1.985845e+01	-9.192917e-01	0	0
2189219	2.063000e+00	1.965040e+01	-9.230507e-01	0	0
2191172	2.063000e+00	4.031586e+00	-1.094172e+00	0	0
2193125	2.063000e+00	9.543981e+00	-1.274991e+00	0	0
2195078	2.063000e+00	2.793923e+01	-1.453868e+00	0	0
2197031	2.063000e+00	4.141804e+01	-1.633687e+00	0	0
2198984	2.063000e+00	5.895000e+01	-1.813450e+00	0	0
2200938	2.063000e+00	9.858917e+01	-1.993293e+00	0	0
2202891	2.063000e+00	1.162614e+02	-2.172794e+00	0	0
2204844	2.063000e+00	1.251685e+02	-2.351885e+00	0	0
2206797	2.063000e+00	1.257546e+02	-2.530384e+00	0	0
2208750	2.063000e+00	1.312475e+02	-2.708114e+00	0	0
2210703	2.063000e+00	1.413101e+02	-2.884899e+00	0	0
2212656	2.063000e+00	1.232544e+02	-3.060560e+00	0	0
2214609	2.063000e+00	1.320489e+02	-3.234921e+00	0	0
2216563	2.063000e+00	1.540635e+02	-3.407893e+00	0	0
2218516	2.063000e+00	1.497871e+02	-3.579118e+00	0	0
2220469	2.063000e+00	2.026844e+02	-3.748520e+00	0	0
2222422	2.063000e+00	2.224385e+02	-3.915875e+00	0	0
2224375	2.063000e+00	2.079367e+02	-4.081187e+00	0	0
2226328	2.063000e+00	2.261445e+02	-4.243428e+00	0	0
2228281	2.063000e+00	2.324457e+02	-4.402734e+00	0	0
2230234	2.063000e+00	2.396905e+02	-4.498851e+00	0	0
2232188	2.063000e+00	2.293374e+02	-4.555662e+00	0	0
2234141	2.063000e+00	2.437067e+02	-4.593302e+00	0	0
2236094	2.063000e+00	2.531969e+02	-4.612955e+00	0	0
2238047	2.063000e+00	2.766726e+02	-4.615395e+00	0	0
2240000	2.063000e+00	2.920922e+02	-4.601491e+00	0	0
2241953	2.063000e+00	3.163469e+02	-4.572095e+00	0	0
2243906	2.063000e+00	3.416498e+02	-4.528037e+00	0	0
2245859	2.063000e+00	3.429966e+02	-4.470247e+00	0	0
2247813	2.063000e+00	3.556950e+02	-4.399246e+00	0	0
2249766	2.063000e+00	3.865561e+02	-4.317034e+00	0	0
2251719	2.063000e+00	3.902869e+02	-4.220423e+00	0	0
2253672	2.063000e+00	3.891525e+02	-4.125206e+00	0	0
2255625	2.063000e+00	3.973572e+02	-3.976483e+00	0	0
2257578	2.063000e+00	4.301998e+02	-4.832476e+00	0	0
2259531	2.063000e+00	4.446761e+02	-5.209707e+00	0	0
2261484	2.063000e+00	4.709141e+02	-3.817769e+00	0	0
2263438	2.063000e+00	4.738403e+02	-3.461489e+00	0	0
2265391	2.063000e+00	4.547596e+02	-3.322734e+00	0	0
2267344	2.063000e+00	4.694258e+02	-3.171580e+00	0	0
2269297	2.063000e+00	4.495918e+02	-3.003808e+00	0	0
2271250	2.063000e+00	4.508782e+02	-2.896840e+00	0	0
2273203	2.063000e+00	4.310413e+02	-1.577840e+00	0	0
2275156	2.063000e+00	4.238835e+02	-1.682901e+00	0	0
2277109	2.063000e+00	4.405422e+02	-2.346711e+00	0	0
2279063	2.063000e+00	4.202835e+02	-2.235900e+00	0	0
2281016	2.063000e+00	3.938312e+02	-1.096964e+00	0	0
2282969	2.063000e+00	3.634189e+02	4.467314e-01	0	0
2284922	2.063000e+00	3.361221e+02	1.970301e+00	0	0
2286875	2.063000e+00	3.219552e+02	3.444662e+00	0	0
2288828	2.063000e+00	2.957932e+02	4.850791e+00	0	0
2290781	2.063000e+00	2.629949e+02	6.161644e+00	0	0
2292734	2.063000e+00	2.273982e+02	7.007971e+00	0	0
2294688	2.062056e+00	1.923336e+02	6.968317e+00	0	0
2296641	2.062944e+00	1.759360e+02	7.151740e+00	0	0
2298594	2.062056e+00	1.542962e+02	7.066296e+00	0	0
2300547	2.062000e+00	1.475440e+02	5.641881e+00	0	0
2302500	2.062000e+00	1.237453e+02	3.394071e+00	0	0
2304453	2.062000e+00	8.052626e+01	6.668343e-01	0	0
2306406	2.062000e+00	7.304392e+01	1.603275e+00	0	0
2308359	2.062000e+00	1.614506e+01	3.297176e+00	0	0
2310313	2.062000e+00	-3.376940e+01	2.868563e+00	0	0
2312266	2.062000e+00	-8.357687e+01	-1.976422e+00	0	0
2314219	2.062000e+00	-8.394996e+01	-5.010980e+00	0	0
2316172	2.062000e+00	-9.352401e+01	-7.714094e+00	0	0
2318125	2.062000e+00	-8.398257e+01	-1.139508e+01	0	0
2320078	2.062000e+00	-7.074986e+01	-1.872082e+01	0	0
2322031	2.062000e+00	-7.899036e+01	-2.446248e+01	0	0
2323984	2.062000e+00	-9.390677e+01	-2.738521e+01	0	0
2325938	2.062000e+00	-1.101727e+02	-2.747257e+01	0	0
2327891	2.062000e+00	-1.182114e+02	-2.556499e+01	0	0
2329844	2.062000e+00	-1.401349e+02	-2.193455e+01	0	0
2331797	2.062000e+00	-1.521039e+02	-2.056942e+01	0	0
2333750	2.062000e+00	-1.570903e+02	-2.184330e+01	0	0
2335703	2.062000e+00	-1.371437e+02	-2.123610e+01	0	0
2337656	2.062000e+00	-1.521693e+02	-1.456902e+01	0	0
2339609	2.062000e+00	-1.528676e+02	-7.275508e+00	0	0
2341563	2.062000e+00	-1.471367e+02	-5.345379e-01	0	0
2343516	2.062000e+00	-1.598503e+02	5.107695e+00	0	0
2345469	2.062000e+00	-1.611388e+02	9.072015e+00	0	0
2347422	2.062000e+00	-1.692524e+02	1.004686e+01	0	0
2349375	2.062000e+00	-1.745192e+02	7.383639e+00	0	0
2351328	2.062000e+00	-1.772460e+02	1.719025e+00	0	0
2353281	2.062000e+00	-1.899253e+02	-6.679386e+00	0	0
2355234	2.062000e+00	-1.784195e+02	-9.954012e+00	0	0
2357188	2.062000e+00	-1.758546e+02	-1.251719e+01	0	0
2359141	2.062000e+00	-1.639047e+02	-2.238502e+01	0	0
2361094	2.062000e+00	-1.706778e+02	-3.846927e+01	0	0
2363047	2.062000e+00	-1.570839e+02	-4.300372e+01	0	0
2365000	2.062000e+00	-1.782996e+02	-4.387571e+01	0	0
2366953	2.062000e+00	-1.758073e+02	-4.157656e+01	0	0
2368906	2.062000e+00	-1.698210e+02	-3.584445e+01	0	0
2370859	2.062000e+00	-1.907964e+02	-1.816496e+01	0	0
2372813	2.062000e+00	-2.057269e+02	1.812973e+01	0	0
2374766	2.062000e+00	-2.240888e+02	4.907833e+01	0	0
2376719	2.062000e+00	-2.255685e+02	9.974494e+01	0	0
2378672	2.062000e+00	-2.049298e+02	1.289078e+02	0	0
2380625	2.062000e+00	-2.138614e+02	1.179813e+02	0	0
2382578	2.062000e+00	-1.948078e+02	7.688572e+01	0	0
2384531	2.062000e+00	-1.943997e+02	1.459422e+01	0	0
2386484	2.062000e+00	-1.814566e+02	-2.679869e+01	0	0
2388438	2.062000e+00	-1.657931e+02	-8.415207e+01	0	0
2390391	2.062000e+00	-1.905234e+02	-1.247815e+02	0	0
2392344	2.062000e+00	-1.924131e+02	-1.263731e+02	0	0
2394297	2.062000e+00	-1.896704e+02	-9.397183e+01	0	0
2396250	2.062000e+00	-1.856898e+02	-5.419447e+01	0	0
2398203	2.062000e+00	-1.927035e+02	-3.501900e+01	0	0
2400156	2.062000e+00	-1.796711e+02	-1.526044e+01	0	0
2402109	2.062000e+00	-1.774493e+02	-6.106886e+00	0	0
2404063	2.062000e+00	-1.747104e+02	2.011668e+00	0	0
2406016	2.062000e+00	-1.914555e+02	9.801710e+00	0	0
2407969	2.062000e+00	-1.935943e+02	1.610654e+01	0	0
2409922	2.062000e+00	-2.035969e+02	1.992110e+01	0	0
2411875	2.062000e+00	-2.051530e+02	2.112178e+01	0	0
2413828	2.062000e+00	-2.036674e+02	1.978271e+01	0	0
2415781	2.062000e+00	-1.880385e+02	1.267756e+01	0	0
2417734	2.062000e+00	-1.789224e+02	7.545797e-01	0	0
2419688	2.062000e+00	-1.617196e+02	-6.835277e+00	0	0
2421641	2.062000e+00	-1.790531e+02	-1.234329e+01	0	0
2423594	2.062000e+00	-1.412817e+02	-7.137528e+00	0	0
2425547	2.062000e+00	-1.792893e+02	-1.154334e+01	0	0
2427500	2.062000e+00	-1.759027e+02	-1.635580e+01	0	0
2429453	2.062000e+00	-1.465478e+02	-1.956604e+01	0	0
2431406	2.062000e+00	-1.733627e+02	-2.159817e+01	0	0
2433359	2.062000e+00	-1.915065e+02	-2.264451e+01	0	0
2435313	2.062000e+00	-1.694689e+02	-2.484443e+01	0	0
2437266	2.062000e+00	-1.604831e+02	-2.505139e+01	0	0
2439219	2.062000e+00	-1.346158e+02	-2.120791e+01	0	0
2441172	2.062000e+00	-1.248357e+02	-9.761806e+00	0	0
2443125	2.061050e+00	-1.392171e+02	-3.959902e+00	0	0
2445078	2.061950e+00	-1.334814e+02	-3.068651e+00	0	0
2447031	2.062000e+00	-1.459593e+02	7.192452e+00	0	0
2448984	2.062000e+00	-1.425977e+02	1.422729e+01	0	0
2450938	2.062000e+00	-1.565787e+02	1.418369e+01	0	0
2452891	2.062000e+00	-1.383464e+02	8.629986e+00	0	0
2454844	2.062000e+00	-1.671601e+02	-1.973976e+00	0	0
2456797	2.061050e+00	-1.582354e+02	2.627974e-01	0	0
2458750	2.061000e+00	-1.654386e+02	-1.127358e+01	0	0
2460703	2.061000e+00	-1.307767e+02	-2.880932e+01	0	0
2462656	2.061000e+00	-1.197693e+02	-3.331936e+01	0	0
2464609	2.061000e+00	-1.115987e+02	-3.109594e+01	0	0
2466563	2.061000e+00	-1.536624e+02	-2.164413e+01	0	0
2468516	2.061000e+00	-1.531257e+02	-5.486538e+00	0	0
2470469	2.061000e+00	-1.691857e+02	1.575350e+01	0	0
2472422	2.061000e+00	-1.568553e+02	2.521607e+01	0	0
2474375	2.061000e+00	-1.543124e+02	5.114938e+01	0	0
2476328	2.061000e+00	-1.599898e+02	7.436622e+01	0	0
2478281	2.061000e+00	-1.429017e+02	7.882412e+01	0	0
2480234	2.061000e+00	-1.247923e+02	5.290019e+01	0	0
2482188	2.061000e+00	-9.942037e+01	1.147713e+01	0	0
2484141	2.061000e+00	-1.175580e+02	-3.185674e+01	0	0
2486094	2.061000e+00	-1.299273e+02	-8.609151e+01	0	0
2488047	2.061000e+00	-1.497937e+02	-1.269104e+02	0	0
2490000	2.061000e+00	-1.460626e+02	-1.460123e+02	0	0
2491953	2.061000e+00	-1.665784e+02	-1.381851e+02	0	0
2493906	2.061000e+00	-1.662690e+02	-9.888056e+01	0	0
2495859	2.061000e+00	-1.510042e+02	-5.199118e+01	0	0
2497813	2.061000e+00	-1.344697e+02	-4.168655e+00	0	0
2499766	2.061000e+00	-1.513414e+02	2.259502e+01	0	0
2501719	2.061000e+00	-1.267876e+02	3.122834e+01	0	0
2503672	2.061000e+00	-1.414997e+02	2.742995e+01	0	0
2505625	2.061000e+00	-1.439254e+02	3.424553e+01	0	0
2507578	2.061000e+00	-1.540408e+02	3.066864e+01	0	0
2509531	2.061000e+00	-1.359718e+02	2.683477e+01	0	0
2511484	2.061000e+00	-1.622990e+02	1.663715e+01	0	0
2513438	2.061000e+00	-1.798781e+02	1.013063e+01	0	0
2515391	2.061000e+00	-1.828467e+02	1.040854e+01	0	0
2517344	2.061000e+00	-2.067252e+02	5.122352e+00	0	0
2519297	2.061000e+00	-1.910362e+02	-1.301989e+00	0	0
2521250	2.061000e+00	-1.753610e+02	-6.780253e+00	0	0
2523203	2.061000e+00	-1.470105e+02	-1.163733e+01	0	0
2525156	2.061000e+00	-1.445105e+02	-1.533857e+01	0	0
2527109	2.061000e+00	-1.302005e+02	-1.426524e+01	0	0
2529063	2.061000e+00	-1.617206e+02	-1.209511e+01	0	0
2531016	2.061000e+00	-1.532901e+02	-1.054659e+01	0	0
2532969	2.061000e+00	-1.672910e+02	-8.459312e+00	0	0
2534922	2.061000e+00	-1.726599e+02	-5.925998e+00	0	0
2536875	2.061000e+00	-1.766744e+02	-2.826887e+00	0	0
2538828	2.061000e+00	-1.648416e+02	1.854018e+00	0	0
2540781	2.061000e+00	-1.421744e+02	3.968048e+00	0	0
2542734	2.061000e+00	-1.275098e+02	5.689872e+00	0	0
2544688	2.061000e+00	-1.082938e+02	9.572995e+00	0	0
2546641	2.061000e+00	-1.384286e+02	7.657725e+00	0	0
2548594	2.061000e+00	-1.676230e+02	5.619431e+00	0	0
2550547	2.061000e+00	-1.785787e+02	1.004359e+01	0	0
2552500	2.061000e+00	-2.059343e+02	1.416037e+01	0	0
2554453	2.061000e+00	-2.157615e+02	1.866445e+01	0	0
2556406	2.061000e+00	-2.253277e+02	2.801083e+01	0	0
2558359	2.061000e+00	-2.141158e+02	2.903791e+01	0	0
2560313	2.061000e+00	-1.628136e+02	2.709505e+01	0	0
2562266	2.061000e+00	-1.713027e+02	1.359188e+01	0	0
2564219	2.061000e+00	-1.453101e+02	6.259070e+00	0	0
2566172	2.061000e+00	-1.498987e+02	2.363486e+01	0	0
2568125	2.061000e+00	-1.414565e+02	3.772068e+01	0	0
2570078	2.061000e+00	-1.494394e+02	6.019411e+01	0	0
2572031	2.061000e+00	-1.622436e+02	1.460458e+01	0	0
2573984	2.061000e+00	-1.712879e+02	-9.789636e+01	0	0
2575938	2.061000e+00	-1.624372e+02	-2.100599e+02	0	0
2577891	2.061000e+00	-1.529319e+02	-2.287110e+02	0	0
2579844	2.061000e+00	-1.290467e+02	-1.533357e+02	0	0
2581797	2.061000e+00	-1.315887e+02	-6.381437e+01	0	0
2583750	2.061000e+00	-1.470357e+02	2.024889e+01	0	0
2585703	2.061000e+00	-1.647758e+02	8.253952e+01	0	0
2587656	2.061000e+00	-1.568388e+02	1.251226e+02	0	0
2589609	2.060044e+00	-1.542780e+02	1.310493e+02	0	0
2591563	2.060956e+00	-1.506421e+02	1.048974e+02	0	0
2593516	2.061000e+00	-1.647611e+02	6.508588e+01	0	0
2595469	2.060044e+00	-1.848316e+02	2.726268e+01	0	0
2597422	2.060956e+00	-1.679447e+02	-4.483157e+00	0	0
2599375	2.061000e+00	-1.771912e+02	-3.791550e+01	0	0
2601328	2.060044e+00	-1.747389e+02	-6.438487e+01	0	0
2603281	2.060000e+00	-1.830636e+02	-8.002420e+01	0	0
2605234	2.060956e+00	-1.693028e+02	-8.116712e+01	0	0
2607188	2.061000e+00	-1.789506e+02	-7.112319e+01	0	0
2609141	2.060043e+00	-1.715489e+02	-5.713067e+01	0	0
2611094	2.060000e+00	-1.877363e+02	-4.091042e+01	0	0
2613047	2.060000e+00	-1.775380e+02	-2.401543e+01	0	0
2615000	2.060000e+00	-1.988533e+02	-7.878125e+00	0	0
2616953	2.060000e+00	-2.237043e+02	2.295333e+00	0	0
2618906	2.060000e+00	-2.286544e+02	1.034117e+01	0	0
2620859	2.060000e+00	-1.894233e+02	2.363220e+01	0	0
2622813	2.060000e+00	-1.791553e+02	3.479746e+01	0	0
2624766	2.060000e+00	-1.593098e+02	4.101212e+01	0	0
2626719	2.060000e+00	-1.650623e+02	4.480956e+01	0	0
2628672	2.060000e+00	-1.498042e+02	4.262304e+01	0	0
2630625	2.060000e+00	-1.445718e+02	3.641952e+01	0	0
2632578	2.060000e+00	-1.365927e+02	2.734898e+01	0	0
2634531	2.060000e+00	-1.605832e+02	1.569890e+01	0	0
2636484	2.060000e+00	-1.608727e+02	1.651777e+01	0	0
2638438	2.060000e+00	-1.405939e+02	3.826076e+00	0	0
2640391	2.060000e+00	-1.274878e+02	-2.225088e+01	0	0
2642344	2.060000e+00	-9.978074e+01	-2.252111e+01	0	0
2644297	2.060000e+00	-8.866176e+01	-2.986550e+01	0	0
2646250	2.060000e+00	-2.243376e+01	-4.122773e+01	0	0
2648203	2.060000e+00	-2.983851e+01	-5.823569e+01	0	0
2650156	2.060000e+00	-4.359627e+01	-3.405709e+01	0	0
2652109	2.060000e+00	-5.529232e+01	-1.981695e+01	0	0
2654063	2.060000e+00	-4.886854e+01	-1.517698e+00	0	0
2656016	2.060000e+00	-5.867800e+01	3.323579e+01	0	0
2657969	2.060000e+00	-2.880627e+01	2.466527e+01	0	0
2659922	2.060000e+00	-1.300361e+01	3.612669e+01	0	0
2661875	2.060000e+00	4.532106e+00	4.706926e+01	0	0
2663828	2.060000e+00	4.712751e+00	5.458158e+01	0	0
2665781	2.060000e+00	1.170983e+01	6.286338e+01	0	0
2667734	2.060000e+00	-1.004352e+00	6.428997e+01	0	0
2669688	2.060000e+00	-1.519747e+00	6.804078e+01	0	0
2671641	2.060000e+00	2.035902e+00	6.883067e+01	0	0
2673594	2.060000e+00	-1.084291e+01	6.417244e+01	0	0
2675547	2.060000e+00	1.358566e+01	7.031091e+01	0	0
2677500	2.060000e+00	1.894505e+01	7.561455e+01	0	0
2679453	2.060000e+00	4.455997e+01	5.379162e+01	0	0
2681406	2.060000e+00	8.350029e+01	-2.354963e+01	0	0
2683359	2.060000e+00	1.013600e+02	-9.777061e+01	0	0
2685313	2.060000e+00	7.410649e+01	-1.607802e+02	0	0
2687266	2.060000e+00	6.340909e+01	-1.857748e+02	0	0
2689219	2.060000e+00	4.743401e+01	-1.863956e+02	0	0
2691172	2.060000e+00	5.491188e+01	-1.460378e+02	0	0
2693125	2.060000e+00	8.519866e+01	-6.859141e+01	0	0
2695078	2.060000e+00	7.051491e+01	3.602196e-02	0	0
2697031	2.060000e+00	8.576691e+01	6.545256e+01	0	0
2698984	2.060000e+00	4.017779e+01	8.576830e+01	0	0
2700938	2.060000e+00	2.491220e+01	7.293724e+01	0	0
2702891	2.060000e+00	3.977612e+00	5.000980e+01	0	0
2704844	2.060000e+00	-3.864885e+01	3.737649e+01	0	0
2706797	2.060000e+00	-4.259844e+01	2.950913e+01	0	0
2708750	2.060000e+00	-7.435010e+01	2.183775e+01	0	0
2710703	2.060000e+00	-9.995500e+01	1.936022e+01	0	0
2712656	2.060000e+00	-9.573384e+01	1.200710e+01	0	0
2714609	2.060000e+00	-1.144796e+02	-2.936032e+00	0	0
2716563	2.060000e+00	-1.067498e+02	-1.793128e+01	0	0
2718516	2.060000e+00	-9.696369e+01	-3.134099e+01	0	0
2720469	2.060000e+00	-1.098692e+02	-4.205357e+01	0	0
2722422	2.060000e+00	-1.097992e+02	-4.894511e+01	0	0
2724375	2.060000e+00	-1.300302e+02	-5.090368e+01	0	0
2726328	2.060000e+00	-1.240492e+02	-4.821330e+01	0	0
2728281	2.060000e+00	-1.518283e+02	-4.239515e+01	0	0
2730234	2.060000e+00	-1.607423e+02	-3.436806e+01	0	0
2732188	2.060000e+00	-1.877270e+02	-2.445983e+01	0	0
2734141	2.060000e+00	-1.813994e+02	-2.490832e+01	0	0
2736094	2.060000e+00	-1.921640e+02	-1.153908e+01	0	0
2738047	2.060000e+00	-2.029268e+02	-2.551490e+00	0	0
2740000	2.060000e+00	-1.753457e+02	3.483986e+00	0	0
2741953	2.059038e+00	-1.841760e+02	6.462356e+00	0	0
2743906	2.059962e+00	-2.003875e+02	5.853878e+00	0	0
2745859	2.059037e+00	-2.008086e+02	2.572441e+00	0	0
2747813	2.059963e+00	-2.148277e+02	-1.903940e+00	0	0
2749766	2.060000e+00	-2.247080e+02	-7.230173e+00	0	0
2751719	2.059037e+00	-2.450076e+02	-1.310328e+01	0	0
2753672	2.059000e+00	-2.477729e+02	-1.923291e+01	0	0
2755625	2.059000e+00	-2.442219e+02	-2.502513e+01	0	0
2757578	2.059000e+00	-2.441255e+02	-3.615428e+01	0	0
2759531	2.059000e+00	-2.032636e+02	-4.640716e+01	0	0
2761484	2.059000e+00	-1.794246e+02	-7.406474e+01	0	0
2763438	2.059000e+00	-1.764712e+02	-1.044001e+02	0	0
2765391	2.059000e+00	-1.882567e+02	-8.542493e+01	0	0
2767344	2.059000e+00	-1.864379e+02	-1.865792e+01	0	0
2769297	2.059000e+00	-2.246117e+02	2.734254e+01	0	0
2771250	2.059000e+00	-2.375710e+02	6.153247e+01	0	0
2773203	2.059000e+00	-2.472587e+02	8.328224e+01	0	0
2775156	2.059000e+00	-2.652170e+02	9.082494e+01	0	0
2777109	2.059000e+00	-2.381103e+02	7.932643e+01	0	0
2779063	2.059000e+00	-2.141072e+02	5.622580e+01	0	0
2781016	2.059000e+00	-1.761558e+02	3.456834e+01	0	0
2782969	2.059000e+00	-1.526423e+02	1.711129e+01	0	0
2784922	2.059000e+00	-1.684443e+02	6.385399e+00	0	0
2786875	2.059000e+00	-1.748812e+02	-2.089968e-01	0	0
2788828	2.059000e+00	-2.132514e+02	-9.859375e+00	0	0
2790781	2.059000e+00	-2.385594e+02	-1.566638e+01	0	0
2792734	2.059000e+00	-2.528715e+02	-2.624938e+01	0	0
2794688	2.059000e+00	-2.658467e+02	-4.585110e+01	0	0
2796641	2.059000e+00	-2.579933e+02	-5.761105e+01	0	0
2798594	2.059000e+00	-2.645275e+02	-8.782142e+01	0	0
2800547	2.059000e+00	-2.784139e+02	-1.040582e+02	0	0
2802500	2.059000e+00	-2.903592e+02	-1.105359e+02	0	0
2804453	2.059000e+00	-3.006139e+02	-1.289517e+02	0	0
2806406	2.059000e+00	-2.844922e+02	-9.757982e+01	0	0
2808359	2.059000e+00	-2.316893e+02	-7.790577e+01	0	0
2810313	2.059000e+00	-1.660960e+02	-5.429355e+01	0	0
2812266	2.059000e+00	-7.082182e+01	-2.632080e+01	0	0
2814219	2.059000e+00	1.243852e+01	-5.126787e+00	0	0
2816172	2.059000e+00	1.480199e+02	9.534472e+00	0	0
2818125	2.059000e+00	3.815970e+02	2.991895e+01	0	0
2820078	2.059000e+00	7.409277e+02	4.568738e+01	0	0
2822031	2.059000e+00	1.000229e+03	5.591439e+01	0	0
2823984	2.059000e+00	1.273470e+03	6.012986e+01	0	0
2825938	2.059000e+00	1.544786e+03	5.772687e+01	0	0
2827891	2.059000e+00	1.749765e+03	4.814691e+01	0	0
2829844	2.059000e+00	1.900036e+03	3.086192e+01	0	0
2831797	2.059000e+00	1.838010e+03	7.933524e+00	0	0
2833750	2.059000e+00	1.732145e+03	-1.292860e+01	0	0
2835703	2.059000e+00	1.427123e+03	-2.667903e+01	0	0
2837656	2.059000e+00	1.106841e+03	-4.824771e+01	0	0
2839609	2.059000e+00	8.796082e+02	-6.565106e+01	0	0
2841563	2.059000e+00	6.929887e+02	-7.632419e+01	0	0
2843516	2.059000e+00	4.802881e+02	-7.898837e+01	0	0
2845469	2.059000e+00	9.018598e+01	-7.259432e+01	0	0
2847422	2.059000e+00	-2.176276e+02	-5.819043e+01	0	0
2849375	2.059000e+00	-3.314153e+02	-3.920361e+01	0	0
2851328	2.059000e+00	-3.714276e+02	-1.677954e+01	0	0
2853281	2.059000e+00	-3.716459e+02	-5.967865e+00	0	0
2855234	2.059000e+00	-3.425982e+02	1.282446e+01	0	0
2857188	2.059000e+00	-3.282845e+02	3.124484e+01	0	0
2859141	2.059000e+00	-2.880619e+02	4.496717e+01	0	0
2861094	2.059000e+00	-2.526564e+02	5.391796e+01	0	0
2863047	2.059000e+00	-2.025121e+02	5.800287e+01	0	0
2865000	2.059000e+00	-1.839548e+02	5.712599e+01	0	0
2866953	2.059000e+00	-1.706121e+02	5.120807e+01	0	0
2868906	2.059000e+00	-1.455208e+02	4.010481e+01	0	0
2870859	2.059000e+00	-1.622465e+02	2.603667e+01	0	0
2872813	2.059000e+00	-1.422280e+02	1.201565e+01	0	0
2874766	2.059000e+00	-1.304788e+02	6.719416e+00	0	0
2876719	2.059000e+00	-1.215390e+02	6.017858e+00	0	0
2878672	2.059000e+00	-1.252520e+02	-1.599449e+00	0	0
2880625	2.059000e+00	-9.908300e+01	-9.630676e+00	0	0
2882578	2.059000e+00	-9.012168e+01	-1.731721e+01	0	0
2884531	2.059000e+00	-1.482409e+02	-2.420607e+01	0	0
2886484	2.059000e+00	-1.638167e+02	-2.988021e+01	0	0
2888438	2.059000e+00	-1.665568e+02	-3.431626e+01	0	0
2890391	2.059000e+00	-1.772585e+02	-3.478442e+01	0	0
2892344	2.059000e+00	-1.756745e+02	-3.366119e+01	0	0
2894297	2.059000e+00	-1.700222e+02	-3.115840e+01	0	0
2896250	2.059000e+00	-1.462085e+02	-3.016831e+01	0	0
2898203	2.059000e+00	-1.026202e+02	-2.821807e+01	0	0
2900156	2.059000e+00	-7.618299e+01	-2.424661e+01	0	0
2902109	2.058031e+00	-9.371351e+01	-1.757345e+01	0	0
2904063	2.058970e+00	-1.301869e+02	-1.029841e+01	0	0
2906016	2.059000e+00	-1.723962e+02	-1.228854e+01	0	0
2907969	2.059000e+00	-1.697438e+02	-5.316821e+00	0	0
2909922	2.059000e+00	-1.693209e+02	3.929827e+00	0	0
2911875	2.058030e+00	-1.763890e+02	1.073901e+01	0	0
2913828	2.058000e+00	-1.729254e+02	1.467449e+01	0	0
2915781	2.058000e+00	-1.584631e+02	1.546054e+01	0	0
2917734	2.058000e+00	-1.572833e+02	1.278451e+01	0	0
2919688	2.058000e+00	-1.388525e+02	8.022120e+00	0	0
2921641	2.058000e+00	-1.111580e+02	3.098581e+00	0	0
2923594	2.058000e+00	-1.337980e+02	-1.491132e+00	0	0
2925547	2.058000e+00	-1.316201e+02	-5.216916e+00	0	0
2927500	2.058000e+00	-1.231858e+02	-2.242403e+00	0	0
2929453	2.058000e+00	-1.478190e+02	1.232586e+00	0	0
2931406	2.058000e+00	-1.520028e+02	2.894777e+00	0	0
2933359	2.058000e+00	-1.343201e+02	1.881541e-01	0	0
2935313	2.058000e+00	-1.224153e+02	-6.565657e+00	0	0
2937266	2.058000e+00	-1.152241e+02	-1.424204e+01	0	0
2939219	2.058000e+00	-1.018871e+02	-1.669487e+01	0	0
2941172	2.058000e+00	-8.275457e+01	-1.820244e+01	0	0
2943125	2.058000e+00	-1.174886e+02	-1.882426e+01	0	0
2945078	2.058000e+00	-8.416718e+01	-1.844036e+01	0	0
2947031	2.058000e+00	-7.330128e+01	-1.697352e+01	0	0
2948984	2.058000e+00	-1.003425e+02	-1.465056e+01	0	0
2950938	2.058000e+00	-1.012041e+02	-1.189246e+01	0	0
2952891	2.058000e+00	-1.185796e+02	-8.894311e+00	0	0
2954844	2.058000e+00	-1.108499e+02	-5.837863e+00	0	0
2956797	2.058000e+00	-1.034404e+02	-2.733706e+00	0	0
2958750	2.058000e+00	-7.025027e+01	1.258658e+00	0	0
2960703	2.058000e+00	-6.874533e+01	5.317976e+00	0	0
2962656	2.058000e+00	-5.522406e+01	9.057459e+00	0	0
2964609	2.058000e+00	-6.894265e+01	1.227439e+01	0	0
2966563	2.058000e+00	-8.196757e+01	1.480369e+01	0	0
2968516	2.058000e+00	-7.844100e+01	1.582553e+01	0	0
2970469	2.058000e+00	-8.954516e+01	1.887154e+01	0	0
2972422	2.058000e+00	-8.862708e+01	2.531936e+01	0	0
2974375	2.058000e+00	-7.620005e+01	3.679459e+01	0	0
2976328	2.058000e+00	-7.157641e+01	6.458251e+01	0	0
2978281	2.058000e+00	-7.683909e+01	9.035470e+01	0	0
2980234	2.058000e+00	-4.990422e+01	7.590691e+01	0	0
2982188	2.058000e+00	-2.745744e+01	1.158919e+01	0	0
2984141	2.058000e+00	-1.516168e+01	-4.571965e+01	0	0
2986094	2.058000e+00	-3.244933e+01	-8.866850e+01	0	0
2988047	2.058000e+00	-8.001169e+00	-9.587084e+01	0	0
2990000	2.058000e+00	-2.680905e+01	-8.076445e+01	0	0
2991953	2.058000e+00	-4.879809e+01	-5.756519e+01	0	0
2993906	2.058000e+00	-4.278538e+01	-3.470911e+01	0	0
2995859	2.058000e+00	-4.114802e+01	-1.427158e+01	0	0
2997813	2.058000e+00	-1.743460e+01	-6.631711e+00	0	0
2999766	2.058000e+00	3.581465e+01	-1.129565e+01	0	0
3001719	2.058000e+00	6.730488e+01	-2.368716e+01	0	0
3003672	2.058000e+00	7.273255e+01	-2.469687e+01	0	0
3005625	2.058000e+00	7.022316e+01	-4.332071e+01	0	0
3007578	2.058000e+00	5.781106e+01	-3.941396e+01	0	0
3009531	2.058000e+00	6.131487e+01	-2.097800e+01	0	0
3011484	2.058000e+00	3.199744e+01	5.586991e+00	0	0
3013438	2.058000e+00	5.877326e+01	1.870931e+01	0	0
3015391	2.058000e+00	6.589497e+01	2.947740e+01	0	0
3017344	2.058000e+00	7.152681e+01	3.179965e+01	0	0
3019297	2.058000e+00	1.123191e+02	2.982069e+01	0	0
3021250	2.058000e+00	1.380350e+02	2.917292e+01	0	0
3023203	2.058000e+00	1.462294e+02	2.708122e+01	0	0
3025156	2.058000e+00	1.159612e+02	2.350731e+01	0	0
3027109	2.058000e+00	1.177548e+02	1.873544e+01	0	0
3029063	2.058000e+00	1.242341e+02	1.301118e+01	0	0
3031016	2.058000e+00	1.373303e+02	6.385389e+00	0	0
3032969	2.058000e+00	1.371866e+02	-7.790267e-01	0	0
3034922	2.058000e+00	1.444534e+02	-8.244431e+00	0	0
3036875	2.058000e+00	1.435262e+02	-1.310238e+01	0	0
3038828	2.058000e+00	1.563114e+02	-2.524065e+01	0	0
3040781	2.058000e+00	2.070377e+02	-3.689706e+01	0	0
3042734	2.058000e+00	2.117851e+02	-4.566695e+01	0	0
3044688	2.058000e+00	2.181295e+02	-5.061442e+01	0	0
3046641	2.058000e+00	2.286142e+02	-5.990151e+01	0	0
3048594	2.058000e+00	2.494056e+02	-4.893825e+01	0	0
3050547	2.058000e+00	2.566594e+02	-4.334163e+01	0	0
3052500	2.058000e+00	2.683833e+02	-3.601919e+01	0	0
3054453	2.058000e+00	2.495811e+02	-3.223060e+01	0	0
3056406	2.057024e+00	2.627846e+02	-3.106603e+01	0	0
3058359	2.057976e+00	2.998110e+02	-1.610956e+01	0	0
3060313	2.057024e+00	3.141874e+02	-1.232656e+01	0	0
3062266	2.057977e+00	3.316322e+02	-5.546839e+00	0	0
3064219	2.058000e+00	3.392058e+02	-1.146563e+00	0	0
3066172	2.057023e+00	3.538793e+02	2.920863e-01	0	0
3068125	2.057977e+00	3.594537e+02	-1.474670e+00	0	0
3070078	2.057023e+00	3.711534e+02	-4.766001e+00	0	0
3072031	2.057000e+00	3.613507e+02	-8.067199e+00	0	0
3073984	2.057977e+00	3.697211e+02	-5.148904e+00	0	0
3075938	2.057023e+00	3.769354e+02	-3.759603e+00	0	0
3077891	2.057000e+00	4.009572e+02	-3.997449e+00	0	0
3079844	2.057000e+00	4.392947e+02	-8.093817e+00	0	0
3081797	2.057000e+00	4.631403e+02	-1.212342e+01	0	0
3083750	2.057000e+00	4.905719e+02	-1.371675e+01	0	0
3085703	2.057000e+00	4.842170e+02	-1.508576e+01	0	0
3087656	2.057000e+00	5.069609e+02	-1.496366e+01	0	0
3089609	2.057000e+00	5.349247e+02	-1.235069e+01	0	0
3091563	2.057000e+00	5.190230e+02	-7.595896e+00	0	0
3093516	2.057000e+00	5.228869e+02	-1.133022e+00	0	0
3095469	2.057000e+00	5.465306e+02	6.508301e+00	0	0
3097422	2.057000e+00	5.477370e+02	6.059417e+00	0	0
3099375	2.057000e+00	5.306685e+02	8.990268e+00	0	0
3101328	2.057000e+00	5.099980e+02	2.025637e+01	0	0
3103281	2.057000e+00	4.955385e+02	3.032751e+01	0	0
3105234	2.057000e+00	4.619068e+02	3.698576e+01	0	0
3107188	2.057000e+00	4.263077e+02	3.885563e+01	0	0
3109141	2.057000e+00	4.083958e+02	3.772276e+01	0	0
3111094	2.057000e+00	3.633445e+02	3.095856e+01	0	0
3113047	2.057000e+00	3.145253e+02	1.979464e+01	0	0
3115000	2.057000e+00	2.776387e+02	5.031257e+00	0	0
3116953	2.057000e+00	2.791267e+02	4.271313e+00	0	0
3118906	2.057000e+00	2.518651e+02	-1.204505e+01	0	0
3120859	2.057000e+00	2.158454e+02	-3.118144e+01	0	0
3122813	2.057000e+00	1.861634e+02	-4.755842e+01	0	0
3124766	2.057000e+00	1.647984e+02	-5.580525e+01	0	0
3126719	2.057000e+00	1.558141e+02	-5.925759e+01	0	0
3128672	2.057000e+00	8.884692e+01	-5.381799e+01	0	0
3130625	2.057000e+00	5.383941e+01	-3.105695e+01	0	0
3132578	2.057000e+00	4.497941e+01	1.056018e+01	0	0
3134531	2.057000e+00	-3.974001e-01	4.851763e+01	0	0
3136484	2.057000e+00	-1.280093e+01	1.054103e+02	0	0
3138438	2.057000e+00	-1.438078e+01	1.198190e+02	0	0
3140391	2.057000e+00	-2.007785e+01	7.119750e+01	0	0
3142344	2.057000e+00	-5.712168e+00	-1.527765e+00	0	0
3144297	2.057000e+00	-2.787699e+01	-7.299002e+01	0	0
3146250	2.057000e+00	-4.579488e+01	-1.262570e+02	0	0
3148203	2.057000e+00	-7.031411e+01	-1.234998e+02	0	0
3150156	2.057000e+00	-1.060666e+02	-7.909540e+01	0	0
3152109	2.057000e+00	-1.120385e+02	-3.502916e+01	0	0
3154063	2.057000e+00	-8.105238e+01	1.936747e+01	0	0
3156016	2.057000e+00	-5.768138e+01	5.390327e+01	0	0
3157969	2.057000e+00	-5.592905e+01	5.140225e+01	0	0
3159922	2.057000e+00	-6.770308e+01	2.018019e+01	0	0
3161875	2.057000e+00	-6.392886e+01	1.072165e+01	0	0
3163828	2.057000e+00	-8.941285e+01	-3.492988e+00	0	0
3165781	2.057000e+00	-1.418603e+02	-1.378288e+01	0	0
3167734	2.057000e+00	-1.723427e+02	-1.424396e+01	0	0
3169688	2.057000e+00	-1.791135e+02	-8.155800e+00	0	0
3171641	2.057000e+00	-1.560151e+02	-9.981046e-01	0	0
3173594	2.057000e+00	-1.613091e+02	5.601285e+00	0	0
3175547	2.057000e+00	-1.754171e+02	8.205922e+00	0	0
3177500	2.057000e+00	-1.772561e+02	4.314205e+00	0	0
3179453	2.057000e+00	-1.792918e+02	6.252354e+00	0	0
3181406	2.057000e+00	-1.485537e+02	1.064031e+01	0	0
3183359	2.057000e+00	-1.233754e+02	1.516763e+01	0	0
3185313	2.057000e+00	-1.296797e+02	1.748597e+01	0	0
3187266	2.057000e+00	-1.249737e+02	1.669328e+01	0	0
3189219	2.057000e+00	-1.293749e+02	1.323246e+01	0	0
3191172	2.057000e+00	-1.395053e+02	7.867567e+00	0	0
3193125	2.057000e+00	-1.635377e+02	1.206885e+00	0	0
3195078	2.057000e+00	-1.612901e+02	2.172473e-01	0	0
3197031	2.057000e+00	-1.535877e+02	-5.820769e-01	0	0
3198984	2.057000e+00	-1.432206e+02	-7.231114e+00	0	0
3200938	2.057000e+00	-1.299179e+02	-1.217236e+01	0	0
3202891	2.057000e+00	-1.261192e+02	-1.477773e+01	0	0
3204844	2.057000e+00	-1.285584e+02	-1.455538e+01	0	0
3206797	2.057000e+00	-1.123554e+02	-1.162444e+01	0	0
3208750	2.057000e+00	-1.479868e+02	-7.116897e+00	0	0
3210703	2.057000e+00	-1.632993e+02	-3.554074e+00	0	0
3212656	2.057000e+00	-1.491812e+02	-3.308293e+00	0	0
3214609	2.057000e+00	-1.612577e+02	-3.049211e+00	0	0
3216563	2.057000e+00	-1.487760e+02	1.938324e+00	0	0
3218516	2.057000e+00	-1.411564e+02	6.348657e+00	0	0
3220469	2.056017e+00	-1.288980e+02	7.710419e+00	0	0
3222422	2.056000e+00	-1.386933e+02	6.098131e+00	0	0
3224375	2.056000e+00	-1.336409e+02	1.704871e+00	0	0
3226328	2.056983e+00	-1.590188e+02	-2.095306e+00	0	0
3228281	2.056017e+00	-1.388073e+02	-2.142108e+00	0	0
3230234	2.056000e+00	-1.464761e+02	-2.251643e+00	0	0
3232188	2.056000e+00	-1.609330e+02	-7.161747e+00	0	0
3234141	2.056984e+00	-1.583869e+02	-1.094153e+01	0	0
3236094	2.056016e+00	-1.740746e+02	-1.255719e+01	0	0
3238047	2.056000e+00	-1.432933e+02	-1.167880e+01	0	0
3240000	2.056000e+00	-1.187983e+02	-7.908837e+00	0	0
3241953	2.056000e+00	-1.159734e+02	-4.192364e+00	0	0
3243906	2.056000e+00	-1.117275e+02	-4.501502e+00	0	0
3245859	2.056000e+00	-1.146143e+02	-2.318205e+00	0	0
3247813	2.056000e+00	-1.306565e+02	3.975322e+00	0	0
3249766	2.056000e+00	-1.376541e+02	7.153025e+00	0	0
3251719	2.056000e+00	-1.257830e+02	7.250681e+00	0	0
3253672	2.056000e+00	-1.222988e+02	4.400104e+00	0	0
3255625	2.056000e+00	-1.319638e+02	-1.246035e+00	0	0
3257578	2.056000e+00	-1.319079e+02	-6.502694e+00	0	0
3259531	2.056000e+00	-1.267897e+02	-6.717915e+00	0	0
3261484	2.056000e+00	-7.719772e+01	-1.182010e+01	0	0
3263438	2.056000e+00	-4.787349e+01	-1.905266e+01	0	0
3265391	2.056000e+00	-4.694381e+01	-2.389050e+01	0	0
3267344	2.056000e+00	-7.490723e+01	-2.490289e+01	0	0
3269297	2.056000e+00	-8.644050e+01	-2.170353e+01	0	0
3271250	2.056000e+00	-1.449961e+02	-1.502716e+01	0	0
3273203	2.056000e+00	-1.842161e+02	-7.824459e+00	0	0
3275156	2.056000e+00	-1.635796e+02	-7.936995e+00	0	0
3277109	2.056000e+00	-1.470284e+02	6.947834e-02	0	0
3279063	2.056000e+00	-1.298172e+02	7.890825e+00	0	0
3281016	2.056000e+00	-1.375574e+02	1.072703e+01	0	0
3282969	2.056000e+00	-1.328071e+02	8.564369e+00	0	0
3284922	2.056000e+00	-1.555965e+02	1.374429e+00	0	0
3286875	2.056000e+00	-1.405176e+02	-7.918808e+00	0	0
3288828	2.056000e+00	-1.251015e+02	-7.774775e+00	0	0
3290781	2.056000e+00	-1.463221e+02	-1.375217e+01	0	0
3292734	2.056000e+00	-1.511370e+02	-2.078556e+01	0	0
3294688	2.056000e+00	-1.484735e+02	-2.446341e+01	0	0
3296641	2.056000e+00	-1.267576e+02	-2.383920e+01	0	0
3298594	2.056000e+00	-9.314339e+01	-1.939396e+01	0	0
3300547	2.056000e+00	-1.052454e+02	-1.290579e+01	0	0
3302500	2.056000e+00	-9.987829e+01	-5.823589e+00	0	0
3304453	2.056000e+00	-1.084329e+02	-5.361143e+00	0	0
3306406	2.056000e+00	-1.139705e+02	-7.255228e-01	0	0
3308359	2.056000e+00	-1.180592e+02	7.836944e+00	0	0
3310313	2.056000e+00	-1.444269e+02	1.147820e+01	0	0
3312266	2.056000e+00	-1.395158e+02	1.085462e+01	0	0
3314219	2.056000e+00	-1.288180e+02	6.662710e+00	0	0
3316172	2.056000e+00	-1.401394e+02	-9.163604e-01	0	0
3318125	2.056000e+00	-1.228129e+02	-3.603830e+00	0	0
3320078	2.056000e+00	-1.033312e+02	-3.644387e+00	0	0
3322031	2.056000e+00	-9.841967e+01	-9.440906e+00	0	0
3323984	2.056000e+00	-8.571241e+01	-1.415702e+01	0	0
3325938	2.056000e+00	-1.108271e+02	-1.587731e+01	0	0
3327891	2.056000e+00	-1.107710e+02	-1.434307e+01	0	0
3329844	2.056000e+00	-1.314165e+02	-9.478072e+00	0	0
3331797	2.056000e+00	-1.217056e+02	-1.825455e+00	0	0
3333750	2.056000e+00	-1.191908e+02	2.295143e+00	0	0
3335703	2.056000e+00	-1.198164e+02	3.298503e+00	0	0
3337656	2.056000e+00	-1.108053e+02	8.705780e+00	0	0
3339609	2.056000e+00	-1.123431e+02	1.520147e+01	0	0
3341563	2.056000e+00	-8.537121e+01	1.889284e+01	0	0
3343516	2.056000e+00	-8.761183e+01	1.971333e+01	0	0
3345469	2.056000e+00	-1.156260e+02	1.763206e+01	0	0
3347422	2.056000e+00	-9.058968e+01	1.260568e+01	0	0
3349375	2.056000e+00	-1.182103e+02	6.883411e+00	0	0
3351328	2.056000e+00	-1.259834e+02	6.916095e+00	0	0
3353281	2.056000e+00	-1.300984e+02	6.952355e+00	0	0
3355234	2.056000e+00	-1.302219e+02	5.641128e+00	0	0
3357188	2.056000e+00	-1.344555e+02	3.090155e+00	0	0
3359141	2.056000e+00	-1.461131e+02	1.362758e+00	0	0
3361094	2.056000e+00	-1.218327e+02	-7.475570e-01	0	0
3363047	2.056000e+00	-1.227899e+02	-3.188158e+00	0	0
3365000	2.056000e+00	-1.157816e+02	-5.892433e+00	0	0
3366953	2.056000e+00	-1.080738e+02	-8.144368e+00	0	0
3368906	2.056000e+00	-1.138160e+02	-9.268326e+00	0	0
3370859	2.056000e+00	-1.276151e+02	-9.272288e+00	0	0
3372813	2.056000e+00	-1.328039e+02	-8.168737e+00	0	0
3374766	2.056000e+00	-1.371060e+02	-5.969111e+00	0	0
3376719	2.056000e+00	-1.306783e+02	-2.690143e+00	0	0
3378672	2.056000e+00	-1.323325e+02	6.481257e-01	0	0
3380625	2.056000e+00	-1.302469e+02	-1.331394e+00	0	0
3382578	2.056000e+00	-1.325427e+02	-2.382755e+00	0	0
3384531	2.056000e+00	-1.035462e+02	3.065671e+00	0	0
3386484	2.056000e+00	-1.194719e+02	9.224246e+00	0	0
3388438	2.056000e+00	-1.284355e+02	1.500556e+01	0	0
3390391	2.056000e+00	-1.417297e+02	1.709683e+01	0	0
3392344	2.056000e+00	-1.480660e+02	1.235140e+01	0	0
3394297	2.056000e+00	-1.483500e+02	3.078826e+00	0	0
3396250	2.056000e+00	-1.220322e+02	-6.181634e+00	0	0
3398203	2.056000e+00	-1.131949e+02	-6.601219e+00	0	0
3400156	2.055008e+00	-1.000421e+02	-1.775438e+01	0	0
3402109	2.055000e+00	-1.270939e+02	-2.571218e+01	0	0
3404063	2.055992e+00	-1.169147e+02	-2.872652e+01	0	0
3406016	2.056000e+00	-1.084782e+02	-2.574737e+01	0	0
3407969	2.056000e+00	-1.258089e+02	-1.979178e+01	0	0
3409922	2.055008e+00	-1.246881e+02	-1.262399e+01	0	0
3411875	2.055000e+00	-1.344469e+02	-5.042168e+00	0	0
3413828	2.055000e+00	-1.360217e+02	-5.459551e+00	0	0
3415781	2.055000e+00	-1.373797e+02	-5.943117e+00	0	0
3417734	2.055000e+00	-7.747264e+01	-1.363366e-01	0	0
3419688	2.055000e+00	-1.546625e+01	5.747443e+00	0	0
3421641	2.055000e+00	2.913801e+01	1.167907e+01	0	0
3423594	2.055000e+00	3.227277e+01	1.648132e+01	0	0
3425547	2.055000e+00	2.497425e+01	1.980100e+01	0	0
3427500	2.055000e+00	2.612191e+01	2.130562e+01	0	0
3429453	2.055993e+00	3.072327e+01	1.895988e+01	0	0
3431406	2.055007e+00	1.477636e+01	1.180938e+01	0	0
3433359	2.055000e+00	1.218915e+01	1.115501e+00	0	0
3435313	2.055000e+00	2.797108e+01	-6.066275e+00	0	0
3437266	2.055000e+00	3.389236e+01	-9.781447e+00	0	0
3439219	2.055000e+00	3.253651e+01	-2.200691e+01	0	0
3441172	2.055000e+00	3.948746e+01	-3.066979e+01	0	0
3443125	2.055000e+00	4.270807e+01	-3.480644e+01	0	0
3445078	2.055000e+00	5.260157e+01	-3.343476e+01	0	0
3447031	2.055000e+00	4.900364e+01	-2.661116e+01	0	0
3448984	2.055000e+00	7.731719e+01	-1.627619e+01	0	0
3450938	2.055000e+00	7.726463e+01	-9.731910e+00	0	0
3452891	2.055000e+00	9.392335e+01	-9.793178e+00	0	0
3454844	2.055000e+00	1.115156e+02	-1.974100e+00	0	0
3456797	2.055000e+00	1.238843e+02	4.626182e+00	0	0
3458750	2.055000e+00	1.243179e+02	8.823054e+00	0	0
3460703	2.055000e+00	1.431834e+02	1.118946e+01	0	0
3462656	2.055000e+00	1.231892e+02	1.164382e+01	0	0
3464609	2.055000e+00	1.182415e+02	1.022541e+01	0	0
3466563	2.055000e+00	1.320061e+02	6.821030e+00	0	0
3468516	2.055000e+00	1.043471e+02	2.094800e+00	0	0
3470469	2.055000e+00	9.897754e+01	-2.669825e+00	0	0
3472422	2.055000e+00	8.565407e+01	-7.254341e+00	0	0
3474375	2.055000e+00	9.012433e+01	-1.146186e+01	0	0
3476328	2.055000e+00	8.003574e+01	-1.217533e+01	0	0
3478281	2.055000e+00	3.769342e+01	-1.268651e+01	0	0
3480234	2.055000e+00	3.837210e+01	-1.320167e+01	0	0
3482188	2.055000e+00	3.212371e+01	-1.371795e+01	0	0
3484141	2.055000e+00	9.471843e+00	-1.471788e+01	0	0
3486094	2.055000e+00	-2.451291e+01	-1.929256e+01	0	0
3488047	2.055000e+00	-5.801506e+01	-2.352385e+01	0	0
3490000	2.055000e+00	-5.803518e+01	-2.604514e+01	0	0
3491953	2.055000e+00	-9.211187e+01	-2.579806e+01	0	0
3493906	2.055000e+00	-1.116065e+02	-2.287769e+01	0	0
3495859	2.055000e+00	-1.310332e+02	-1.737646e+01	0	0
3497813	2.055000e+00	-1.215095e+02	-1.221002e+01	0	0
3499766	2.055000e+00	-1.381533e+02	-1.006232e+01	0	0
3501719	2.055000e+00	-1.276716e+02	-7.568156e+00	0	0
3503672	2.055000e+00	-1.274936e+02	-5.259482e+00	0	0
3505625	2.055000e+00	-1.292490e+02	-2.444013e+00	0	0
3507578	2.055000e+00	-1.390108e+02	-1.697860e+00	0	0
3509531	2.055000e+00	-1.661906e+02	-2.468371e+00	0	0
3511484	2.055000e+00	-1.835051e+02	-1.459533e+00	0	0
3513438	2.055000e+00	-1.871006e+02	1.188442e+00	0	0
3515391	2.055000e+00	-1.910397e+02	3.499028e+00	0	0
3517344	2.055000e+00	-1.786366e+02	5.000817e+00	0	0
3519297	2.055000e+00	-1.945033e+02	5.870526e+00	0	0
3521250	2.055000e+00	-1.750998e+02	6.197292e+00	0	0
3523203	2.055000e+00	-1.600823e+02	5.874375e+00	0	0
3525156	2.055000e+00	-1.840024e+02	5.103884e+00	0	0
3527109	2.055000e+00	-1.659734e+02	4.161867e+00	0	0
3529063	2.055000e+00	-1.887953e+02	3.051275e+00	0	0
3531016	2.055000e+00	-1.948392e+02	2.285411e+00	0	0
3532969	2.055000e+00	-2.110757e+02	1.518161e+00	0	0
3534922	2.055000e+00	-2.053777e+02	6.975963e-01	0	0
3536875	2.055000e+00	-2.048798e+02	1.303120e+00	0	0
3538828	2.055000e+00	-2.061713e+02	1.881258e+00	0	0
3540781	2.055000e+00	-1.928293e+02	2.424848e+00	0	0
3542734	2.055000e+00	-1.913736e+02	2.927629e+00	0	0
3544688	2.055000e+00	-1.835435e+02	3.375380e+00	0	0
3546641	2.055000e+00	-1.694449e+02	2.283261e+00	0	0
3548594	2.055000e+00	-1.676623e+02	1.235590e+00	0	0
3550547	2.055000e+00	-1.774557e+02	3.066454e-01	0	0
3552500	2.055000e+00	-2.049715e+02	-4.735464e-01	0	0
3554453	2.055000e+00	-2.186075e+02	-1.056024e+00	0	0
3556406	2.055000e+00	-2.140670e+02	-1.356476e+00	0	0
3558359	2.055000e+00	-1.912754e+02	-1.318514e+00	0	0
3560313	2.055000e+00	-1.659256e+02	-9.185105e-01	0	0
3562266	2.055000e+00	-1.702077e+02	-3.010820e-01	0	0
3564219	2.055000e+00	-1.621860e+02	4.914115e-01	0	0
3566172	2.055000e+00	-1.656078e+02	1.416489e+00	0	0
3568125	2.055000e+00	-1.661641e+02	2.431671e+00	0	0
3570078	2.055000e+00	-1.919812e+02	3.475322e+00	0	0
3572031	2.055000e+00	-2.372066e+02	4.490441e+00	0	0
3573984	2.055000e+00	-2.692619e+02	5.253219e+00	0	0
3575938	2.055000e+00	-2.781137e+02	5.206117e+00	0	0
3577891	2.055000e+00	-2.543653e+02	5.140715e+00	0	0
3579844	2.055000e+00	-2.213781e+02	5.057328e+00	0	0
3581797	2.055000e+00	-1.131601e+02	4.956817e+00	0	0
3583750	2.055000e+00	-4.170914e+01	4.839944e+00	0	0
3585703	2.055000e+00	4.735074e+01	4.707117e+00	0	0
3587656	2.055000e+00	1.469372e+02	4.560309e+00	0	0
3589609	2.055000e+00	2.679811e+02	5.673259e+00	0	0
3591563	2.055000e+00	4.954835e+02	6.766418e+00	0	0
3593516	2.055000e+00	7.861720e+02	7.704863e+00	0	0
3595469	2.055000e+00	1.051707e+03	8.494273e+00	0	0
3597422	2.055000e+00	1.342096e+03	9.226022e+00	0	0
3599375	2.055000e+00	1.634843e+03	9.941824e+00	0	0
3601328	2.055000e+00	1.864187e+03	1.057958e+01	0	0
3603281	2.055000e+00	1.913470e+03	1.079311e+01	0	0
3605234	2.055000e+00	1.817733e+03	1.032024e+01	0	0
3607188	2.055000e+00	1.610489e+03	9.223591e+00	0	0
3609141	2.055000e+00	1.212799e+03	7.567202e+00	0	0
3611094	2.055000e+00	9.731194e+02	5.356852e+00	0	0
3613047	2.055000e+00	7.165102e+02	2.663989e+00	0	0
3615000	2.055000e+00	5.477716e+02	6.181599e-01	0	0
3616953	2.055000e+00	2.689423e+02	3.169050e-01	0	0
3618906	2.055000e+00	-9.371024e+01	2.589051e-01	0	0
3620859	2.055000e+00	-2.171310e+02	1.002501e-01	0	0
3622813	2.055000e+00	-2.665007e+02	-2.275175e+00	0	0
3624766	2.055000e+00	-2.791356e+02	-4.295867e+00	0	0
3626719	2.055000e+00	-2.331225e+02	-5.849988e+00	0	0
3628672	2.055000e+00	-2.041475e+02	-6.815528e+00	0	0
3630625	2.055000e+00	-2.127120e+02	-7.154784e+00	0	0
3632578	2.055000e+00	-1.709505e+02	-7.036814e+00	0	0
3634531	2.055000e+00	-1.594402e+02	-6.628914e+00	0	0
3636484	2.055000e+00	-1.187155e+02	-6.170551e+00	0	0
3638438	2.055000e+00	-8.904877e+01	-5.654097e+00	0	0
3640391	2.055000e+00	-9.012272e+01	-4.907794e+00	0	0
3642344	2.055000e+00	-7.890439e+01	-3.958491e+00	0	0
3644297	2.055000e+00	-8.096515e+01	-2.839661e+00	0	0
3646250	2.055000e+00	-9.681877e+01	-3.008944e+00	0	0
3648203	2.055000e+00	-1.139008e+02	-3.248979e+00	0	0
3650156	2.055000e+00	-1.335472e+02	-3.445792e+00	0	0
3652109	2.055000e+00	-1.395164e+02	-3.603020e+00	0	0
3654063	2.055000e+00	-1.702173e+02	-3.719650e+00	0	0
3656016	2.055000e+00	-1.389827e+02	-3.789424e+00	0	0
3657969	2.055000e+00	-1.312041e+02	-3.056284e+00	0	0
3659922	2.055000e+00	-1.260322e+02	-2.482858e+00	0	0
3661875	2.055000e+00	-1.055260e+02	-1.973316e+00	0	0
3663828	2.055000e+00	-8.877678e+01	-1.521020e+00	0	0
3665781	2.055000e+00	-8.582848e+01	-1.126744e+00	0	0
3667734	2.055000e+00	-1.018944e+02	-7.911436e-01	0	0
3669688	2.055000e+00	-1.108254e+02	-5.132316e-01	0	0
3671641	2.055000e+00	-1.248455e+02	-2.924811e-01	0	0
3673594	2.055000e+00	-1.390980e+02	-1.278847e-01	0	0
3675547	2.055000e+00	-1.345713e+02	-1.870059e-02	0	0
3677500	2.055000e+00	-1.178396e+02	3.621008e-02	0	0
3679453	2.055000e+00	-1.242990e+02	1.447660e-03	0	0
3681406	2.055000e+00	-1.292779e+02	-4.505745e-01	0	0
3683359	2.055000e+00	-1.396385e+02	-9.476104e-01	0	0
3685313	2.055000e+00	-1.221824e+02	-1.065844e+00	0	0
3687266	2.055000e+00	-1.163836e+02	-1.191566e+00	0	0
3689219	2.055000e+00	-1.043409e+02	-1.312787e+00	0	0
3691172	2.054994e+00	-1.271165e+02	-1.257577e+00	0	0
3693125	2.054006e+00	-1.335505e+02	-1.008867e-01	0	0
3695078	2.054994e+00	-1.428617e+02	6.420778e-01	0	0
3697031	2.054006e+00	-1.544663e+02	9.160997e-01	0	0
3698984	2.055000e+00	-1.184875e+02	7.641845e-03	0	0
3700938	2.054993e+00	-9.142809e+01	-1.930041e+00	0	0
3702891	2.054007e+00	-7.865054e+01	-2.001396e+00	0	0
3704844	2.055000e+00	-7.405654e+01	-2.078149e+00	0	0
3706797	2.055000e+00	-8.614061e+01	-2.084592e+00	0	0
3708750	2.055000e+00	-9.887563e+01	-1.938155e+00	0	0
3710703	2.055000e+00	-9.846995e+01	-3.871321e+00	0	0
3712656	2.055000e+00	-1.000085e+02	-5.390803e+00	0	0
3714609	2.055000e+00	-1.012308e+02	-5.432309e+00	0	0
3716563	2.055000e+00	-8.392118e+01	-3.729947e+00	0	0
3718516	2.055000e+00	-6.550201e+01	-1.952461e+00	0	0
3720469	2.055000e+00	-6.609393e+01	-1.779783e+00	0	0
3722422	2.055000e+00	-5.084693e+01	-1.529488e+00	0	0
3724375	2.055000e+00	-5.764717e+01	-1.322037e+00	0	0
3726328	2.055000e+00	-6.209212e+01	-1.335816e+00	0	0
3728281	2.055000e+00	-6.748732e+01	-1.269633e+00	0	0
3730234	2.055000e+00	-7.050103e+01	1.660276e-01	0	0
3732188	2.055000e+00	-7.256604e+01	1.090427e+00	0	0
3734141	2.055000e+00	-8.787130e+01	1.426184e+00	0	0
3736094	2.055000e+00	-6.427194e+01	1.081189e+00	0	0
3738047	2.055000e+00	-4.531501e+01	-4.045275e-02	0	0
3740000	2.055000e+00	-3.134203e+01	-1.676555e+00	0	0
3741953	2.055000e+00	-1.609081e+01	-2.003524e+00	0	0
3743906	2.055000e+00	-1.349855e+01	-2.100335e+00	0	0
3745859	2.055000e+00	-3.618285e+01	-2.069282e+00	0	0
3747813	2.055000e+00	-4.084888e+01	-2.038507e+00	0	0
3749766	2.055000e+00	-3.960526e+01	-2.005469e+00	0	0
3751719	2.055000e+00	-6.164059e+01	-1.755319e+00	0	0
3753672	2.055000e+00	-5.084979e+01	-1.092971e+00	0	0
3755625	2.055000e+00	-4.212396e+01	-4.955733e-01	0	0
3757578	2.055000e+00	-3.843073e+01	-1.082193e+00	0	0
3759531	2.055000e+00	-3.697148e+01	-1.684616e+00	0	0
3761484	2.055000e+00	-1.597866e+01	-8.384298e-01	0	0
3763438	2.055000e+00	-8.398112e+00	1.113309e+00	0	0
3765391	2.055000e+00	6.321101e+00	1.220139e+00	0	0
3767344	2.055000e+00	1.503405e+01	1.237963e+00	0	0
3769297	2.055000e+00	1.118954e+01	1.160008e+00	0	0
3771250	2.055000e+00	1.934381e+01	9.982969e-01	0	0
3773203	2.055000e+00	1.530360e+01	7.810032e-01	0	0
3775156	2.055000e+00	3.557856e+01	1.971413e+00	0	0
3777109	2.055000e+00	4.093925e+01	1.737816e+00	0	0
3779063	2.055000e+00	6.917193e+01	-1.387944e-01	0	0
3781016	2.055000e+00	8.736233e+01	-1.342773e+00	0	0
3782969	2.055000e+00	8.194215e+01	-1.286447e+00	0	0
3784922	2.055000e+00	7.920380e+01	-1.237417e+00	0	0
3786875	2.055000e+00	8.248487e+01	-1.185651e+00	0	0
3788828	2.055000e+00	1.029761e+02	-1.130762e+00	0	0
3790781	2.055000e+00	9.554942e+01	-1.084443e+00	0	0
3792734	2.055000e+00	8.721895e+01	-2.233508e+00	0	0
3794688	2.055000e+00	8.980769e+01	-3.630387e+00	0	0
3796641	2.055000e+00	1.121030e+02	-4.524849e+00	0	0
3798594	2.055000e+00	1.172412e+02	-4.820115e+00	0	0
3800547	2.055000e+00	1.435199e+02	-4.607143e+00	0	0
3802500	2.055000e+00	1.880091e+02	-3.975642e+00	0	0
3804453	2.055000e+00	1.714016e+02	-2.997438e+00	0	0
3806406	2.055000e+00	1.780545e+02	-1.751764e+00	0	0
3808359	2.055000e+00	1.788209e+02	-4.591237e-01	0	0
3810313	2.055000e+00	1.709971e+02	-3.763650e-01	0	0
3812266	2.055000e+00	1.784010e+02	-2.764140e-01	0	0
3814219	2.055000e+00	1.821052e+02	-1.826985e-01	0	0
3816172	2.055000e+00	2.096046e+02	-1.063642e-01	0	0
3818125	2.055000e+00	2.353129e+02	-2.718499e-02	0	0
3820078	2.055000e+00	2.669620e+02	5.677771e-02	0	0
3822031	2.055000e+00	2.884109e+02	1.452672e-01	0	0
3823984	2.055000e+00	2.994806e+02	2.379480e-01	0	0
3825938	2.055000e+00	2.900423e+02	3.349847e-01	0	0
3827891	2.055000e+00	2.720805e+02	4.346416e-01	0	0
3829844	2.055000e+00	2.933159e+02	4.307129e-01	0	0
3831797	2.055000e+00	3.235928e+02	4.099174e-01	0	0
3833750	2.055000e+00	3.259863e+02	3.894302e-01	0	0
3835703	2.055000e+00	3.518103e+02	3.674095e-01	0	0
3837656	2.055000e+00	3.949264e+02	3.512370e-01	0	0
3839609	2.055000e+00	3.956141e+02	9.159409e-01	0	0
3841563	2.055000e+00	4.384935e+02	1.610180e+00	0	0
3843516	2.055000e+00	4.598158e+02	2.170497e+00	0	0
3845469	2.055000e+00	4.581406e+02	2.521744e+00	0	0
3847422	2.055000e+00	4.774770e+02	2.620140e+00	0	0
3849375	2.055000e+00	4.647123e+02	2.423306e+00	0	0
3851328	2.055000e+00	4.605700e+02	1.886079e+00	0	0
3853281	2.055000e+00	4.557437e+02	9.658739e-01	0	0
3855234	2.055000e+00	4.732581e+02	1.567473e-01	0	0
3857188	2.055000e+00	5.021230e+02	1.429487e-01	0	0
3859141	2.055000e+00	5.040647e+02	1.208342e-01	0	0
3861094	2.055000e+00	5.199265e+02	1.011663e-01	0	0
3863047	2.055000e+00	5.377022e+02	8.073546e-02	0	0
3865000	2.055000e+00	5.509972e+02	6.144281e-02	0	0
3866953	2.055000e+00	5.178554e+02	3.892743e-02	0	0
3868906	2.055000e+00	5.012322e+02	-3.302861e-01	0	0
3870859	2.055000e+00	4.785277e+02	-8.973654e-01	0	0
3872813	2.055000e+00	4.618354e+02	-1.147678e+00	0	0
3874766	2.055000e+00	4.426263e+02	-1.180771e+00	0	0
3876719	2.055000e+00	4.060807e+02	-1.021145e+00	0	0
3878672	2.055000e+00	3.761315e+02	-6.972278e-01	0	0
3880625	2.055000e+00	3.755632e+02	-2.227592e-01	0	0
3882578	2.055000e+00	3.767555e+02	3.846771e-01	0	0
3884531	2.055000e+00	3.021187e+02	8.222115e-01	0	0
3886484	2.055000e+00	2.781293e+02	9.132186e-01	0	0
3888438	2.055000e+00	2.192450e+02	1.003856e+00	0	0
3890391	2.055000e+00	1.742258e+02	1.089235e+00	0	0
3892344	2.055000e+00	1.434978e+02	1.170425e+00	0	0
3894297	2.055000e+00	1.204458e+02	1.246863e+00	0	0
3896250	2.055000e+00	1.308081e+02	1.318418e+00	0	0
3898203	2.055000e+00	1.286111e+02	1.384843e+00	0	0
3900156	2.055000e+00	1.020352e+02	1.445923e+00	0	0
3902109	2.055000e+00	8.677374e+01	1.501433e+00	0	0
3904063	2.055000e+00	6.851624e+01	1.551176e+00	0	0
3906016	2.055000e+00	3.311612e+01	1.594877e+00	0	0
3907969	2.055000e+00	1.229200e+01	1.632341e+00	0	0
3909922	2.055000e+00	-5.797064e+00	1.663347e+00	0	0
3911875	2.055000e+00	-4.782474e+01	1.687669e+00	0	0
3913828	2.055000e+00	-5.818789e+01	1.705094e+00	0	0
3915781	2.055000e+00	-5.721762e+01	1.715367e+00	0	0
3917734	2.055000e+00	-7.766565e+01	1.718386e+00	0	0
3919688	2.055000e+00	-7.783443e+01	1.713468e+00	0	0
3921641	2.055000e+00	-6.739382e+01	1.705029e+00	0	0
3923594	2.055000e+00	-8.410807e+01	1.887886e+00	0	0
3925547	2.055000e+00	-1.068935e+02	2.341965e+00	0	0
3927500	2.055000e+00	-1.001954e+02	2.527807e+00	0	0
3929453	2.055000e+00	-1.100958e+02	2.419236e+00	0	0
3931406	2.055000e+00	-1.244500e+02	1.986057e+00	0	0
3933359	2.055000e+00	-1.302459e+02	1.592168e+00	0	0
3935313	2.055000e+00	-1.308931e+02	1.569211e+00	0	0
3937266	2.055000e+00	-1.593055e+02	1.538991e+00	0	0
3939219	2.055000e+00	-1.482857e+02	1.507756e+00	0	0
3941172	2.055000e+00	-1.268092e+02	1.473887e+00	0	0
3943125	2.055000e+00	-1.348741e+02	1.437726e+00	0	0
3945078	2.055000e+00	-1.424708e+02	1.399752e+00	0	0
3947031	2.055000e+00	-1.487727e+02	1.357923e+00	0	0
3948984	2.055000e+00	-1.485890e+02	1.150942e+00	0	0
3950938	2.055000e+00	-1.661594e+02	7.950412e-01	0	0
3952891	2.055000e+00	-1.673015e+02	6.061828e-01	0	0
3954844	2.055000e+00	-1.905235e+02	4.315355e-01	0	0
3956797	2.055000e+00	-1.764024e+02	2.784639e-01	0	0
3958750	2.055000e+00	-1.494243e+02	1.499126e-01	0	0
3960703	2.055000e+00	-1.423397e+02	5.005999e-02	0	0
3962656	2.055000e+00	-1.110192e+02	-1.718405e-02	0	0
3964609	2.055019e+00	-1.163458e+02	-4.792325e-02	0	0
3966563	2.055980e+00	-1.053183e+02	-3.785953e-02	0	0
3968516	2.055000e+00	-1.222066e+02	3.271113e-02	0	0
3970469	2.055000e+00	-1.246798e+02	1.496715e-01	0	0
3972422	2.055020e+00	-1.603007e+02	3.063033e-01	0	0
3974375	2.056000e+00	-1.560829e+02	4.979070e-01	0	0
3976328	2.056000e+00	-1.566153e+02	6.523104e-01	0	0
3978281	2.056000e+00	-1.410803e+02	7.524988e-01	0	0
3980234	2.056000e+00	-1.137794e+02	8.556506e-01	0	0
3982188	2.056000e+00	-1.058672e+02	9.608252e-01	0	0
3984141	2.056000e+00	-9.671876e+01	1.068056e+00	0	0
3986094	2.056000e+00	-1.166804e+02	1.177243e+00	0	0
3988047	2.056000e+00	-1.363272e+02	1.288267e+00	0	0
3990000	2.056000e+00	-1.571009e+02	1.401171e+00	0	0
3991953	2.056000e+00	-1.750460e+02	1.515319e+00	0	0
3993906	2.056000e+00	-2.108021e+02	1.591081e+00	0	0
3995859	2.056000e+00	-2.095213e+02	1.613730e+00	0	0
3997813	2.056000e+00	-2.015587e+02	1.636949e+00	0	0
3999766	2.056000e+00	-2.168385e+02	1.659812e+00	0	0
4001719	2.056000e+00	-1.979391e+02	1.682561e+00	0	0
4003672	2.056000e+00	-2.045379e+02	1.705155e+00	0	0
4005625	2.056000e+00	-2.119567e+02	1.727501e+00	0	0
4007578	2.056000e+00	-1.984616e+02	1.749978e+00	0	0
4009531	2.056000e+00	-1.848002e+02	1.740912e+00	0	0
4011484	2.056000e+00	-1.455319e+02	1.561417e+00	0	0
4013438	2.056000e+00	-1.329829e+02	1.383107e+00	0	0
4015391	2.056000e+00	-1.014395e+02	1.297275e+00	0	0
4017344	2.056000e+00	-1.191088e+02	1.508242e+00	0	0
4019297	2.056000e+00	-1.062531e+02	1.821658e+00	0	0
4021250	2.056000e+00	-9.565707e+01	2.052723e+00	0	0
4023203	2.056000e+00	-9.066577e+01	2.181005e+00	0	0
4025156	2.056000e+00	-1.121865e+02	2.209114e+00	0	0
4027109	2.056000e+00	-1.243217e+02	2.139829e+00	0	0
4029063	2.056000e+00	-1.222116e+02	1.975828e+00	0	0
4031016	2.056000e+00	-1.232745e+02	1.719874e+00	0	0
4032969	2.056000e+00	-1.374386e+02	1.375266e+00	0	0
4034922	2.056000e+00	-1.664997e+02	9.391785e-01	0	0
4036875	2.056000e+00	-1.540897e+02	3.898607e-01	0	0
4038828	2.056000e+00	-1.255933e+02	8.982152e-02	0	0
4040781	2.056000e+00	-1.297907e+02	-5.026537e-03	0	0
4042734	2.056000e+00	-1.197165e+02	-9.077860e-03	0	0
4044688	2.056000e+00	-1.208860e+02	-1.514765e-02	0	0
4046641	2.056000e+00	-1.296204e+02	-2.187851e-02	0	0
4048594	2.056000e+00	-1.689432e+02	-2.961211e-02	0	0
4050547	2.056000e+00	-1.570685e+02	-3.817710e-02	0	0
4052500	2.056000e+00	-1.640758e+02	-4.773758e-02	0	0
4054453	2.056000e+00	-1.680971e+02	-5.762930e-02	0	0
4056406	2.056000e+00	-1.344820e+02	-7.016964e-02	0	0
4058359	2.056000e+00	-1.439331e+02	-7.656098e-02	0	0
4060313	2.056000e+00	-1.118795e+02	9.180286e-02	0	0
4062266	2.056000e+00	-1.045122e+02	-2.989015e-01	0	0
4064219	2.056000e+00	-1.110944e+02	-5.446287e-01	0	0
4066172	2.056000e+00	-1.239607e+02	-6.340344e-01	0	0
4068125	2.056000e+00	-1.072441e+02	-5.732789e-01	0	0
4070078	2.056000e+00	-1.617453e+02	-3.953909e-01	0	0
4072031	2.056000e+00	-1.379046e+02	-1.047934e-01	0	0
4073984	2.056025e+00	-1.436262e+02	2.930014e-01	0	0
4075938	2.056975e+00	-1.697239e+02	7.889094e-01	0	0
4077891	2.056025e+00	-1.523358e+02	1.372637e+00	0	0
4079844	2.056975e+00	-1.186226e+02	2.036243e+00	0	0
4081797	2.056000e+00	-1.034257e+02	2.765515e+00	0	0
4083750	2.056026e+00	-9.816204e+01	3.299270e+00	0	0
4085703	2.057000e+00	-1.230683e+02	3.626352e+00	0	0
4087656	2.057000e+00	-1.220385e+02	3.957134e+00	0	0
4089609	2.057000e+00	-1.163377e+02	3.914083e+00	0	0
4091563	2.057000e+00	-1.559135e+02	3.495642e+00	0	0
4093516	2.057000e+00	-1.548385e+02	3.065768e+00	0	0
4095469	2.057000e+00	-1.424341e+02	2.618170e+00	0	0
4097422	2.057000e+00	-1.538522e+02	2.155376e+00	0	0
4099375	2.057000e+00	-1.672056e+02	1.677448e+00	0	0
4101328	2.057000e+00	-1.353784e+02	1.185631e+00	0	0
4103281	2.057000e+00	-1.152286e+02	6.789103e-01	0	0
4105234	2.057000e+00	-1.102521e+02	1.641343e-01	0	0
4107188	2.057000e+00	-1.075242e+02	8.871267e-02	0	0
4109141	2.057000e+00	-1.291318e+02	7.897665e-01	0	0
4111094	2.057000e+00	-1.604172e+02	1.431948e+00	0	0
4113047	2.057000e+00	-1.425105e+02	1.949547e+00	0	0
4115000	2.057000e+00	-1.471362e+02	2.310454e+00	0	0
4116953	2.057000e+00	-1.254514e+02	2.487387e+00	0	0
4118906	2.057000e+00	-1.130360e+02	2.451276e+00	0	0
4120859	2.057000e+00	-1.236005e+02	2.175375e+00	0	0
4122813	2.057000e+00	-1.264993e+02	1.734793e+00	0	0
4124766	2.057000e+00	-1.516582e+02	1.226688e+00	0	0
4126719	2.057000e+00	-1.708444e+02	6.603068e-01	0	0
4128672	2.057000e+00	-1.928169e+02	4.352919e-02	0	0
4130625	2.057000e+00	-1.776548e+02	-3.974194e-01	0	0
4132578	2.057000e+00	-1.583353e+02	1.941133e-01	0	0
4134531	2.057000e+00	-1.705596e+02	5.656994e-01	0	0
4136484	2.057000e+00	-1.463611e+02	3.704860e-01	0	0
4138438	2.057000e+00	-1.233875e+02	1.248986e+00	0	0
4140391	2.057000e+00	-6.574260e+01	2.818714e+00	0	0
4142344	2.057000e+00	-7.810298e+01	3.923351e+00	0	0
4144297	2.057000e+00	-9.964335e+01	3.213315e+00	0	0
4146250	2.057000e+00	-1.096212e+02	2.551576e+00	0	0
4148203	2.057000e+00	-1.433218e+02	1.852288e+00	0	0
4150156	2.057000e+00	-1.747060e+02	-6.543815e-02	0	0
4152109	2.057000e+00	-1.746527e+02	-2.088498e+00	0	0
4154063	2.057000e+00	-1.871867e+02	-4.143055e+00	0	0
4156016	2.057000e+00	-1.560262e+02	-5.574917e+00	0	0
4157969	2.057000e+00	-1.453275e+02	-6.269747e+00	0	0
4159922	2.057000e+00	-1.330566e+02	-6.996100e+00	0	0
4161875	2.057029e+00	-8.660981e+01	-7.718851e+00	0	0
4163828	2.058000e+00	-5.124893e+01	-7.382743e+00	0	0
4165781	2.058000e+00	-4.295401e+01	-5.629997e+00	0	0
4167734	2.058000e+00	-3.616131e+01	-3.812878e+00	0	0
4169688	2.058000e+00	1.175137e+01	-2.189668e+00	0	0
4171641	2.058000e+00	1.030812e+01	-9.616883e-01	0	0
4173594	2.058000e+00	2.739955e+00	4.822557e-03	0	0
4175547	2.058000e+00	-5.781437e+00	6.260956e-01	0	0
4177500	2.058000e+00	1.334766e+01	6.304861e-01	0	0
4179453	2.058000e+00	1.765465e+01	-1.945884e-01	0	0
4181406	2.058000e+00	3.307378e+01	3.244188e+00	0	0
4183359	2.058000e+00	3.175765e+01	1.100375e+01	0	0
4185313	2.058000e+00	7.213354e+01	-1.362299e+00	0	0
4187266	2.058000e+00	7.081416e+01	-5.166458e+00	0	0
4189219	2.058000e+00	6.125623e+01	-3.529702e+00	0	0
4191172	2.058000e+00	8.469423e+01	9.743798e+00	0	0
4193125	2.058000e+00	6.362368e+01	3.222368e+01	0	0
4195078	2.058000e+00	5.684955e+01	4.066724e+01	0	0
4197031	2.058000e+00	7.049700e+01	6.595291e+01	0	0
4198984	2.058000e+00	1.023653e+02	6.110202e+01	0	0
4200938	2.058000e+00	1.262599e+02	9.588409e+00	0	0
4202891	2.058000e+00	1.099130e+02	-5.035920e+01	0	0
4204844	2.058000e+00	1.414126e+02	-1.191885e+02	0	0
4206797	2.058000e+00	1.331307e+02	-1.440344e+02	0	0
4208750	2.058000e+00	1.011390e+02	-1.151603e+02	0	0
4210703	2.058000e+00	1.104715e+02	-6.011699e+01	0	0
4212656	2.058000e+00	9.176733e+01	-1.243115e+01	0	0
4214609	2.058000e+00	5.647061e+01	3.947428e+01	0	0
4216563	2.058000e+00	8.797595e+01	6.304268e+01	0	0
4218516	2.058000e+00	1.072219e+02	4.571291e+01	0	0
4220469	2.058000e+00	8.793166e+01	2.290942e+01	0	0
4222422	2.058000e+00	6.307930e+01	1.714542e+01	0	0
4224375	2.058000e+00	4.578469e+01	-4.813489e-01	0	0
4226328	2.058000e+00	2.250091e+00	-1.270998e+01	0	0
4228281	2.058032e+00	-7.815502e+00	-1.531662e+01	0	0
4230234	2.059000e+00	-6.060876e+01	-1.116795e+01	0	0
4232188	2.058967e+00	-1.081123e+02	-7.717304e+00	0	0
4234141	2.058033e+00	-9.427631e+01	-5.086906e+00	0	0
4236094	2.059000e+00	-1.334923e+02	-3.436119e+00	0	0
4238047	2.059000e+00	-1.323975e+02	-2.287615e+00	0	0
4240000	2.059000e+00	-1.499159e+02	-1.502518e+00	0	0
4241953	2.059000e+00	-1.318069e+02	1.701278e+00	0	0
4243906	2.059000e+00	-1.370318e+02	6.707621e+00	0	0
4245859	2.059000e+00	-1.504991e+02	7.195468e+00	0	0
4247813	2.059000e+00	-1.525688e+02	3.851364e+00	0	0
4249766	2.059000e+00	-1.607682e+02	1.090525e+00	0	0
4251719	2.059000e+00	-2.106138e+02	-1.090155e+00	0	0
4253672	2.059000e+00	-2.439935e+02	-2.503618e+00	0	0
4255625	2.059000e+00	-2.534242e+02	-1.622923e+00	0	0
4257578	2.059000e+00	-2.442238e+02	1.696967e-01	0	0
4259531	2.059000e+00	-2.308206e+02	1.751852e+00	0	0
4261484	2.059000e+00	-2.346613e+02	2.549834e+00	0	0
4263438	2.059000e+00	-2.242732e+02	1.443409e+00	0	0
4265391	2.059000e+00	-2.182628e+02	7.190164e-01	0	0
4267344	2.059000e+00	-2.214253e+02	9.621739e-01	0	0
4269297	2.059000e+00	-2.397806e+02	1.133757e+00	0	0
4271250	2.059000e+00	-2.262645e+02	7.448638e-01	0	0
4273203	2.059000e+00	-2.092207e+02	-2.174144e-01	0	0
4275156	2.059000e+00	-1.823072e+02	-1.058703e+00	0	0
4277109	2.059000e+00	-1.908436e+02	-1.777587e+00	0	0
4279063	2.059000e+00	-1.475993e+02	-2.350094e+00	0	0
4281016	2.059000e+00	-1.536788e+02	-2.757975e+00	0	0
4282969	2.059000e+00	-1.609958e+02	-2.999529e+00	0	0
4284922	2.059000e+00	-1.683104e+02	-3.089776e+00	0	0
4286875	2.059036e+00	-1.867360e+02	-3.012272e+00	0	0
4288828	2.059964e+00	-1.794256e+02	-2.629426e+00	0	0
4290781	2.059036e+00	-1.902588e+02	-2.138296e+00	0	0
4292734	2.060000e+00	-1.998240e+02	-1.545516e+00	0	0
4294688	2.060000e+00	-2.232586e+02	-8.553000e-01	0	0
4296641	2.060000e+00	-2.321212e+02	-1.074971e-01	0	0
4298594	2.060000e+00	-2.100208e+02	-7.488428e-02	0	0
4300547	2.060000e+00	-1.843791e+02	-3.116628e-01	0	0
4302500	2.060000e+00	-2.268915e+02	-9.896350e-01	0	0
4304453	2.060000e+00	-1.820120e+02	-1.418427e+00	0	0
4306406	2.060000e+00	-2.239388e+02	-1.600927e+00	0	0
4308359	2.060000e+00	-2.115715e+02	-1.012574e+00	0	0
4310313	2.060000e+00	-2.291971e+02	-1.423450e-02	0	0
4312266	2.060000e+00	-2.052465e+02	1.102907e+00	0	0
4314219	2.060000e+00	-2.222449e+02	1.557675e+00	0	0
4316172	2.060000e+00	-2.709321e+02	1.376402e+00	0	0
4318125	2.060000e+00	-2.656938e+02	1.238744e+00	0	0
4320078	2.060000e+00	-3.380718e+02	4.679466e-02	0	0
4322031	2.060000e+00	-3.324990e+02	-1.330263e+00	0	0
4323984	2.060000e+00	-3.148929e+02	-3.052233e+00	0	0
4325938	2.060000e+00	-2.926998e+02	-4.251078e+00	0	0
4327891	2.060000e+00	-2.174641e+02	-4.989040e+00	0	0
4329844	2.060000e+00	-8.776779e+01	-5.880849e+00	0	0
4331797	2.060000e+00	6.920419e+00	-4.825966e+00	0	0
4333750	2.060000e+00	1.281927e+02	-4.092570e+00	0	0
4335703	2.060000e+00	3.168519e+02	-4.372150e+00	0	0
4337656	2.060039e+00	5.852992e+02	-4.829274e+00	0	0
4339609	2.061000e+00	8.596679e+02	9.986714e-01	0	0
4341563	2.060961e+00	1.161460e+03	4.674157e+00	0	0
4343516	2.060000e+00	1.507598e+03	-6.621367e+00	0	0
4345469	2.060039e+00	1.758902e+03	-1.126883e+01	0	0
4347422	2.061000e+00	1.937721e+03	-1.488872e+01	0	0
4349375	2.061000e+00	1.931372e+03	-1.169332e+01	0	0
4351328	2.061000e+00	1.804443e+03	3.200504e+00	0	0
4353281	2.061000e+00	1.543747e+03	2.720951e+01	0	0
4355234	2.061000e+00	1.168919e+03	3.920389e+01	0	0
4357188	2.061000e+00	9.627624e+02	6.716037e+01	0	0
4359141	2.061000e+00	7.430249e+02	6.511832e+01	0	0
4361094	2.061000e+00	5.467852e+02	1.307420e+01	0	0
4363047	2.061000e+00	1.702638e+02	-4.641155e+01	0	0
4365000	2.061000e+00	-1.993470e+02	-1.146465e+02	0	0
4366953	2.061000e+00	-2.954364e+02	-1.386769e+02	0	0
4368906	2.061000e+00	-3.294176e+02	-1.104505e+02	0	0
4370859	2.061000e+00	-3.240970e+02	-5.761927e+01	0	0
4372813	2.061000e+00	-2.998489e+02	-1.158659e+01	0	0
4374766	2.061000e+00	-2.953303e+02	3.963315e+01	0	0
4376719	2.061000e+00	-2.468457e+02	5.821982e+01	0	0
4378672	2.061000e+00	-2.326109e+02	5.098332e+01	0	0
4380625	2.061000e+00	-2.044152e+02	2.891384e+01	0	0
4382578	2.061000e+00	-1.492376e+02	2.245675e+01	0	0
4384531	2.061000e+00	-1.308892e+02	5.558620e+00	0	0
4386484	2.061000e+00	-1.279869e+02	-4.851798e+00	0	0
4388438	2.061042e+00	-1.495606e+02	-6.583508e+00	0	0
4390391	2.062000e+00	-1.528753e+02	-2.370456e+00	0	0
4392344	2.061958e+00	-1.416336e+02	6.406352e+00	0	0
4394297	2.061042e+00	-1.578276e+02	8.927961e-01	0	0
4396250	2.062000e+00	-1.415014e+02	-9.737863e-02	0	0
4398203	2.062000e+00	-1.580144e+02	2.644718e+00	0	0
4400156	2.062000e+00	-1.617807e+02	7.219148e-01	0	0
4402109	2.062000e+00	-1.264140e+02	-8.084657e-01	0	0
4404063	2.062000e+00	-1.036365e+02	-1.146501e+00	0	0
4406016	2.062000e+00	-8.334109e+01	-8.182557e-01	0	0
4407969	2.062000e+00	-1.168476e+02	-3.160558e-01	0	0
4409922	2.062000e+00	-1.292850e+02	-3.472055e-01	0	0
4411875	2.062000e+00	-1.291289e+02	-3.925719e-01	0	0
4413828	2.062000e+00	-1.376484e+02	-1.300775e+00	0	0
4415781	2.062000e+00	-1.443543e+02	-1.924341e+00	0	0
