time	gsr	ecg	emg_trapezius	emg_corrugator	emg_zygomaticus
1797	2.536000e+00	3.989387e+01	-5.089825e+00	0	0
3750	2.536000e+00	1.342039e+01	3.471867e+00	0	0
5703	2.536000e+00	-9.775346e+00	-8.932819e+00	0	0
7656	2.536000e+00	-3.513874e+01	1.766234e+02	0	0
9609	2.536000e+00	-4.679842e+01	1.266474e+02	0	0
11562	2.536000e+00	-7.368087e+01	2.115070e+00	0	0
13516	2.536000e+00	-7.496192e+01	6.806357e+00	0	0
15469	2.536000e+00	-9.540457e+01	-1.775779e+02	0	0
17422	2.536919e+00	-1.160665e+02	-1.573316e+02	0	0
19375	2.537000e+00	-1.410830e+02	-1.136116e+02	0	0
21328	2.537000e+00	-1.451568e+02	-7.902627e+00	0	0
23281	2.537000e+00	-1.558489e+02	2.236635e+00	0	0
25234	2.537000e+00	-1.516476e+02	-9.753377e+00	0	0
27187	2.537000e+00	-1.552195e+02	1.739974e+02	0	0
29141	2.537000e+00	-1.475153e+02	1.886406e+02	0	0
31094	2.537000e+00	-1.633425e+02	7.105049e+00	0	0
33047	2.537000e+00	-1.567921e+02	-6.849004e-01	0	0
35000	2.537000e+00	-1.592583e+02	-9.051617e+01	0	0
36953	2.537919e+00	-2.007699e+02	-1.884244e+02	0	0
38906	2.538000e+00	-1.929092e+02	-1.357058e+02	0	0
40859	2.538000e+00	-1.927940e+02	-7.589533e+00	0	0
42812	2.538000e+00	-2.144115e+02	9.007474e-01	0	0
44766	2.538000e+00	-2.052040e+02	-4.723631e+00	0	0
46719	2.538000e+00	-1.989127e+02	8.807144e+01	0	0
48672	2.538000e+00	-1.949977e+02	1.912918e+02	0	0
50625	2.538000e+00	-1.958314e+02	2.340319e+01	0	0
52578	2.538000e+00	-2.004534e+02	-1.239246e+00	0	0
54531	2.538000e+00	-2.007113e+02	-7.447353e+01	0	0
56484	2.538000e+00	-2.031778e+02	-1.846782e+02	0	0
58437	2.538920e+00	-2.081995e+02	-1.252308e+02	0	0
60391	2.539000e+00	-2.107929e+02	-1.922566e+01	0	0
62344	2.539000e+00	-2.013651e+02	-3.875826e-01	0	0
64297	2.539000e+00	-2.077325e+02	-3.911200e+00	0	0
66250	2.539000e+00	-2.077326e+02	7.233878e+01	0	0
68203	2.539000e+00	-2.226315e+02	1.767796e+02	0	0
70156	2.539000e+00	-2.123387e+02	9.118240e+01	0	0
72109	2.539000e+00	-1.985614e+02	1.322160e+00	0	0
74062	2.539000e+00	-1.787098e+02	-3.032459e+01	0	0
76016	2.539921e+00	-2.006646e+02	-1.734037e+02	0	0
77969	2.539079e+00	-2.171541e+02	-1.414487e+02	0	0
79922	2.539921e+00	-2.083705e+02	-8.089233e+01	0	0
81875	2.540000e+00	-2.172545e+02	-5.627652e+00	0	0
83828	2.540000e+00	-2.249151e+02	1.622099e+00	0	0
85781	2.540000e+00	-2.250903e+02	-9.581005e+00	0	0
87734	2.540000e+00	-2.101797e+02	1.685766e+02	0	0
89687	2.540921e+00	-2.087071e+02	1.425994e+02	0	0
91641	2.540078e+00	-2.303799e+02	2.391544e+00	0	0
93594	2.540000e+00	-2.672678e+02	4.967476e+00	0	0
95547	2.540922e+00	-2.826645e+02	-1.723357e+02	0	0
97500	2.541000e+00	-2.691535e+02	-1.577123e+02	0	0
99453	2.541000e+00	-2.623768e+02	-9.735636e+01	0	0
101406	2.541000e+00	-1.934577e+02	-6.428858e+00	0	0
103359	2.541000e+00	-1.478617e+02	1.705266e+00	0	0
105312	2.541000e+00	-7.280678e+01	-9.129355e+00	0	0
107266	2.541923e+00	1.589742e+01	1.677579e+02	0	0
109219	2.542000e+00	1.730511e+02	1.778165e+02	0	0
111172	2.542000e+00	3.727007e+02	6.098342e+00	0	0
113125	2.542000e+00	6.595111e+02	-3.593688e-01	0	0
115078	2.542000e+00	8.834298e+02	-9.314364e+01	0	0
117031	2.542000e+00	1.120245e+03	-1.806498e+02	0	0
118984	2.542000e+00	1.392922e+03	-1.242719e+02	0	0
120937	2.542000e+00	1.619271e+03	-6.850648e+00	0	0
122891	2.542923e+00	1.760590e+03	9.675915e-01	0	0
124844	2.543000e+00	1.703424e+03	-5.815464e+00	0	0
126797	2.543000e+00	1.564391e+03	1.095641e+02	0	0
128750	2.543000e+00	1.255106e+03	1.843607e+02	0	0
130703	2.543000e+00	9.506390e+02	2.099577e+01	0	0
132656	2.543000e+00	7.412927e+02	-1.521636e+00	0	0
134609	2.543923e+00	5.784703e+02	-6.598262e+01	0	0
136562	2.544000e+00	3.398212e+02	-1.804347e+02	0	0
138516	2.544000e+00	-4.984948e+00	-1.166655e+02	0	0
140469	2.544000e+00	-2.926228e+02	-3.139388e+01	0	0
142422	2.544000e+00	-3.722815e+02	-1.606933e+00	0	0
144375	2.544000e+00	-3.856583e+02	-2.966172e+00	0	0
146328	2.544924e+00	-3.467470e+02	6.457696e+01	0	0
148281	2.545000e+00	-3.088852e+02	1.842152e+02	0	0
150234	2.545000e+00	-2.661242e+02	8.551476e+01	0	0
152187	2.545000e+00	-2.064948e+02	5.367781e-01	0	0
154141	2.545000e+00	-1.692435e+02	-3.167197e+01	0	0
156094	2.545000e+00	-1.465993e+02	-1.849826e+02	0	0
158047	2.545000e+00	-1.249031e+02	-1.452212e+02	0	0
160000	2.545925e+00	-9.590713e+01	-9.323512e+01	0	0
161953	2.546000e+00	-1.161170e+02	-5.272044e+00	0	0
163906	2.546000e+00	-1.426994e+02	3.429876e+00	0	0
165859	2.546000e+00	-1.401293e+02	-8.340901e+00	0	0
167812	2.546000e+00	-1.197964e+02	1.812974e+02	0	0
169766	2.546000e+00	-1.201211e+02	1.320854e+02	0	0
171719	2.546000e+00	-1.202959e+02	1.938683e+00	0	0
173672	2.546925e+00	-1.118423e+02	5.785967e+00	0	0
175625	2.547000e+00	-1.350651e+02	-1.799670e+02	0	0
177578	2.547000e+00	-1.229937e+02	-1.572186e+02	0	0
179531	2.547000e+00	-1.300153e+02	-1.069922e+02	0	0
181484	2.547925e+00	-1.443364e+02	-6.868832e+00	0	0
183437	2.547075e+00	-1.360807e+02	3.352403e-01	0	0
185391	2.547926e+00	-1.439377e+02	-1.116226e+01	0	0
187344	2.548000e+00	-1.268896e+02	1.689901e+02	0	0
189297	2.548000e+00	-1.287869e+02	1.788770e+02	0	0
191250	2.548000e+00	-1.147239e+02	5.331742e+00	0	0
193203	2.548000e+00	-1.072722e+02	1.254301e+00	0	0
195156	2.548926e+00	-1.173084e+02	-1.248233e+02	0	0
197109	2.549000e+00	-1.154011e+02	-1.849691e+02	0	0
199062	2.549000e+00	-1.091266e+02	-1.378858e+02	0	0
201016	2.549000e+00	-1.143317e+02	-5.050279e+00	0	0
202969	2.549000e+00	-1.245416e+02	4.037175e+00	0	0
204922	2.549000e+00	-1.175254e+02	-3.232712e+00	0	0
206875	2.549927e+00	-1.290961e+02	1.079465e+02	0	0
208828	2.550000e+00	-1.154986e+02	1.911942e+02	0	0
210781	2.550000e+00	-8.923740e+01	1.239940e+01	0	0
212734	2.550000e+00	-8.889194e+01	-2.334304e+00	0	0
214687	2.550000e+00	-8.788411e+01	-6.541191e+01	0	0
216641	2.550927e+00	-8.531834e+01	-1.869178e+02	0	0
218594	2.551000e+00	-8.777142e+01	-1.099966e+02	0	0
220547	2.551000e+00	-8.208111e+01	-1.774760e+01	0	0
222500	2.551000e+00	-7.369462e+01	-4.527627e+00	0	0
224453	2.551000e+00	-1.009822e+02	-7.701801e+00	0	0
226406	2.551928e+00	-1.012809e+02	7.108995e+01	0	0
228359	2.552000e+00	-8.134865e+01	1.785795e+02	0	0
230312	2.552000e+00	-6.547362e+01	8.718436e+01	0	0
232266	2.552000e+00	-6.589956e+01	-3.153380e+00	0	0
234219	2.552000e+00	-8.029975e+01	-3.295413e+01	0	0
236172	2.552000e+00	-7.632625e+01	-1.830453e+02	0	0
238125	2.552928e+00	-7.796405e+01	-1.455155e+02	0	0
240078	2.553000e+00	-7.420133e+01	-6.410797e+01	0	0
242031	2.553000e+00	-6.321979e+01	-5.069480e+00	0	0
243984	2.553000e+00	-5.296003e+01	5.874561e-01	0	0
245937	2.553928e+00	-4.780600e+01	1.714361e-01	0	0
247891	2.554000e+00	-4.048987e+01	1.768589e+02	0	0
249844	2.554000e+00	-3.522629e+01	1.304097e+02	0	0
251797	2.554000e+00	-4.425869e+01	1.232967e+00	0	0
253750	2.554000e+00	-3.189177e+01	2.134180e+00	0	0
255703	2.554929e+00	-5.270133e+01	-1.790273e+02	0	0
257656	2.555000e+00	-3.851481e+01	-1.597812e+02	0	0
259609	2.555000e+00	-4.193247e+01	-1.012678e+02	0	0
261562	2.555000e+00	-2.822462e+01	-3.776541e+00	0	0
263516	2.555000e+00	-2.148782e+01	4.995065e+00	0	0
265469	2.555930e+00	-3.202542e+01	-4.932922e+00	0	0
267422	2.556000e+00	-4.639150e+00	1.788122e+02	0	0
269375	2.556000e+00	-6.686350e-01	1.668259e+02	0	0
271328	2.556000e+00	1.861279e-01	8.220435e+00	0	0
273281	2.556000e+00	-6.084181e+00	5.706570e+00	0	0
275234	2.556930e+00	4.122554e+00	-1.259686e+02	0	0
277187	2.557000e+00	-4.170876e+00	-1.850335e+02	0	0
279141	2.557000e+00	3.342039e+00	-1.444752e+02	0	0
281094	2.557000e+00	2.528506e+00	-7.165664e+00	0	0
283047	2.557930e+00	-3.584134e+00	3.450450e+00	0	0
285000	2.558000e+00	-3.629749e-01	-5.233607e+00	0	0
286953	2.558000e+00	6.944833e+00	1.130258e+02	0	0
288906	2.558000e+00	2.069017e+01	1.956847e+02	0	0
290859	2.558000e+00	4.000239e+01	7.952023e+00	0	0
292812	2.558000e+00	5.072512e+01	-2.909004e+00	0	0
294766	2.558931e+00	7.052704e+01	-7.008881e+01	0	0
296719	2.559000e+00	6.425438e+01	-1.989234e+02	0	0
298672	2.559000e+00	5.482554e+01	-9.987085e+01	0	0
300625	2.559000e+00	5.898176e+01	-1.615094e+01	0	0
302578	2.559931e+00	6.857943e+01	-8.667971e+00	0	0
304531	2.560000e+00	7.425450e+01	-1.144673e+01	0	0
306484	2.560000e+00	9.103826e+01	8.761731e+01	0	0
308437	2.560000e+00	1.130880e+02	1.817503e+02	0	0
310391	2.560932e+00	1.280818e+02	8.902691e+01	0	0
312344	2.561000e+00	1.459746e+02	-3.397589e+00	0	0
314297	2.561000e+00	1.470829e+02	-5.126186e+01	0	0
316250	2.561000e+00	1.478975e+02	-1.865814e+02	0	0
318203	2.561932e+00	1.287636e+02	-1.454260e+02	0	0
320156	2.562000e+00	1.270074e+02	-7.515492e+01	0	0
322109	2.562000e+00	1.386909e+02	-4.719660e+00	0	0
324062	2.562000e+00	1.548503e+02	1.884330e+00	0	0
326016	2.562933e+00	1.691450e+02	4.373306e+00	0	0
327969	2.563000e+00	1.867557e+02	1.764852e+02	0	0
329922	2.563000e+00	2.199219e+02	1.046599e+02	0	0
331875	2.563000e+00	2.446981e+02	3.955379e-01	0	0
333828	2.563000e+00	2.538105e+02	-1.280002e+01	0	0
335781	2.563933e+00	2.684411e+02	-1.737628e+02	0	0
337734	2.564000e+00	2.661660e+02	-1.573067e+02	0	0
339687	2.564000e+00	2.523652e+02	-1.059219e+02	0	0
341641	2.564000e+00	2.808350e+02	-4.025244e+00	0	0
343594	2.564933e+00	2.773392e+02	3.401131e+00	0	0
345547	2.565000e+00	2.937104e+02	-6.505059e+00	0	0
347500	2.565000e+00	3.130278e+02	1.700611e+02	0	0
349453	2.565000e+00	3.100063e+02	1.622608e+02	0	0
351406	2.565934e+00	3.226997e+02	9.888111e+00	0	0
353359	2.566000e+00	3.400351e+02	9.773237e+00	0	0
355312	2.566000e+00	3.799588e+02	-1.405630e+02	0	0
357266	2.566000e+00	3.762848e+02	-1.783121e+02	0	0
359219	2.566000e+00	3.842139e+02	-1.166750e+02	0	0
361172	2.566934e+00	3.768052e+02	1.410031e+00	0	0
363125	2.567000e+00	3.842071e+02	8.698654e+00	0	0
365078	2.567000e+00	3.845693e+02	1.846215e+00	0	0
367031	2.567000e+00	3.902884e+02	1.025671e+02	0	0
368984	2.567934e+00	3.964749e+02	1.921753e+02	0	0
370937	2.568000e+00	4.141372e+02	9.877970e+00	0	0
372891	2.568000e+00	4.267487e+02	-2.102808e+00	0	0
374844	2.568000e+00	4.207510e+02	-7.595498e+01	0	0
376797	2.568935e+00	4.194484e+02	-1.920731e+02	0	0
378750	2.569000e+00	4.345138e+02	-1.264168e+02	0	0
380703	2.569000e+00	4.316772e+02	-1.936711e+01	0	0
382656	2.569935e+00	4.168633e+02	-1.511869e+01	0	0
384609	2.570000e+00	4.196269e+02	-1.993383e+01	0	0
386562	2.570000e+00	4.130046e+02	8.970334e+01	0	0
388516	2.570000e+00	4.071218e+02	1.704158e+02	0	0
390469	2.570936e+00	3.578654e+02	7.905771e+01	0	0
392422	2.571000e+00	3.337531e+02	-6.204919e+00	0	0
394375	2.571000e+00	3.162709e+02	-4.700272e+01	0	0
396328	2.571000e+00	3.018712e+02	-1.775415e+02	0	0
398281	2.571000e+00	2.810178e+02	-1.350486e+02	0	0
400234	2.571936e+00	2.594243e+02	-7.648973e+01	0	0
402187	2.572000e+00	2.627465e+02	8.171191e-02	0	0
404141	2.572000e+00	2.374373e+02	4.338758e+00	0	0
406094	2.572000e+00	1.992387e+02	2.393170e+00	0	0
408047	2.572936e+00	1.858133e+02	1.746147e+02	0	0
410000	2.573000e+00	1.445272e+02	9.744147e+01	0	0
411953	2.573000e+00	1.189420e+02	2.614348e+00	0	0
413906	2.573000e+00	1.057760e+02	-1.165651e+01	0	0
415859	2.573937e+00	9.516231e+01	-1.731460e+02	0	0
417812	2.574000e+00	6.113319e+01	-1.428496e+02	0	0
419766	2.574000e+00	5.724797e+01	-9.141212e+01	0	0
421719	2.574937e+00	3.875271e+01	-3.352705e-01	0	0
423672	2.575000e+00	1.478591e+01	7.491464e+00	0	0
425625	2.575000e+00	1.826749e-01	-6.875716e-01	0	0
427578	2.575000e+00	-9.743067e+00	1.823206e+02	0	0
429531	2.575000e+00	-2.222215e+01	1.610665e+02	0	0
431484	2.575937e+00	-2.917522e+01	1.179619e+01	0	0
433437	2.576000e+00	-3.243983e+01	1.023064e+01	0	0
435391	2.576000e+00	-3.689403e+01	-1.336426e+02	0	0
437344	2.576000e+00	-3.509967e+01	-1.792768e+02	0	0
439297	2.576938e+00	-4.225083e+01	-1.310838e+02	0	0
441250	2.577000e+00	-4.383391e+01	-1.452791e+00	0	0
443203	2.577000e+00	-5.887947e+01	1.114914e+01	0	0
445156	2.577000e+00	-5.010224e+01	5.370736e+00	0	0
447109	2.577938e+00	-5.956986e+01	1.141909e+02	0	0
449062	2.578000e+00	-5.711169e+01	1.986062e+02	0	0
451016	2.578000e+00	-5.962929e+01	5.930884e+00	0	0
452969	2.578000e+00	-6.190555e+01	-5.309219e+00	0	0
454922	2.578939e+00	-5.702709e+01	-7.541125e+01	0	0
456875	2.579000e+00	-7.087615e+01	-1.977152e+02	0	0
458828	2.579000e+00	-6.648152e+01	-1.246045e+02	0	0
460781	2.579000e+00	-5.783363e+01	-2.408460e+01	0	0
462734	2.579939e+00	-8.074292e+01	-2.101708e+01	0	0
464687	2.580000e+00	-9.135969e+01	-2.650795e+01	0	0
466641	2.580000e+00	-8.556762e+01	9.890291e+01	0	0
468594	2.580000e+00	-7.563919e+01	1.678456e+02	0	0
470547	2.580939e+00	-7.085889e+01	6.793435e+01	0	0
472500	2.581000e+00	-5.254399e+01	-4.978645e+00	0	0
474453	2.581000e+00	-5.755684e+01	-6.186212e+01	0	0
476406	2.581000e+00	-6.423107e+01	-1.791964e+02	0	0
478359	2.581940e+00	-6.917775e+01	-1.274663e+02	0	0
480312	2.582000e+00	-7.164255e+01	-6.904719e+01	0	0
482266	2.582000e+00	-8.307290e+01	4.557449e+00	0	0
484219	2.582940e+00	-9.423338e+01	7.901149e+00	0	0
486172	2.583000e+00	-8.826619e+01	2.655630e+01	0	0
488125	2.583000e+00	-8.417046e+01	1.834127e+02	0	0
490078	2.583000e+00	-8.374187e+01	1.022128e+02	0	0
492031	2.583000e+00	-7.882162e+01	7.938329e+00	0	0
493984	2.583940e+00	-8.573886e+01	-2.492972e+01	0	0
495937	2.584000e+00	-9.416136e+01	-1.751942e+02	0	0
497891	2.584000e+00	-8.476434e+01	-1.411021e+02	0	0
499844	2.584941e+00	-6.951022e+01	-9.105748e+01	0	0
501797	2.585000e+00	-8.540651e+01	5.730238e-01	0	0
503750	2.585000e+00	-1.106141e+02	7.681136e+00	0	0
505703	2.585000e+00	-1.250624e+02	-2.903984e-01	0	0
507656	2.585941e+00	-1.146252e+02	1.849781e+02	0	0
509609	2.586000e+00	-1.041825e+02	1.532381e+02	0	0
511562	2.586000e+00	-1.100989e+02	7.797896e+00	0	0
513516	2.586000e+00	-8.753783e+01	7.711999e+00	0	0
515469	2.586942e+00	-6.408895e+01	-1.660337e+02	0	0
517422	2.587000e+00	-8.105243e+01	-1.844254e+02	0	0
519375	2.587000e+00	-8.314443e+01	-1.300983e+02	0	0
521328	2.587000e+00	-7.266532e+01	1.169354e+00	0	0
523281	2.587942e+00	-8.590119e+01	6.963143e+00	0	0
525234	2.588000e+00	-7.422509e+01	-2.164076e+00	0	0
527187	2.588000e+00	-7.843609e+01	1.276111e+02	0	0
529141	2.588000e+00	-7.392547e+01	1.930292e+02	0	0
531094	2.588942e+00	-8.523270e+01	2.918759e+00	0	0
533047	2.589000e+00	-5.659522e+01	-6.827303e+00	0	0
535000	2.589000e+00	-5.913813e+01	-7.959726e+01	0	0
536953	2.589000e+00	-7.773443e+01	-2.036695e+02	0	0
538906	2.589942e+00	-7.202354e+01	-1.195112e+02	0	0
540859	2.590000e+00	-7.752445e+01	-1.768544e+01	0	0
542812	2.590000e+00	-7.539687e+01	-1.035476e+01	0	0
544766	2.590000e+00	-6.684303e+01	-1.097322e+01	0	0
546719	2.590943e+00	-6.180657e+01	9.310271e+01	0	0
548672	2.591000e+00	-7.305823e+01	1.804203e+02	0	0
550625	2.591000e+00	-7.570830e+01	3.202145e+01	0	0
552578	2.591000e+00	-4.338302e+01	1.707598e+00	0	0
554531	2.591943e+00	-3.913906e+01	-5.404401e+01	0	0
556484	2.592000e+00	-5.718553e+01	-1.743413e+02	0	0
558437	2.592000e+00	-4.715044e+01	-1.326397e+02	0	0
560391	2.592000e+00	-5.282690e+01	-6.933433e+01	0	0
562344	2.592944e+00	-5.042124e+01	-5.522179e-01	0	0
564297	2.593000e+00	-5.307933e+01	4.762649e+00	0	0
566250	2.593000e+00	-4.377361e+01	2.714448e+01	0	0
568203	2.593944e+00	-5.988915e+01	1.823200e+02	0	0
570156	2.594000e+00	-4.888816e+01	1.032819e+02	0	0
572109	2.594000e+00	-3.915010e+01	8.520792e+00	0	0
574062	2.594000e+00	-6.261349e+01	-1.609908e+01	0	0
576016	2.594000e+00	-6.211613e+01	-1.685191e+02	0	0
577969	2.594000e+00	-6.275226e+01	-1.364550e+02	0	0
579922	2.594945e+00	-5.679599e+01	-8.053986e+01	0	0
581875	2.595000e+00	-5.765859e+01	2.531059e+00	0	0
583828	2.595945e+00	-5.675749e+01	7.380324e+00	0	0
585781	2.596000e+00	-5.226781e+01	-1.912985e+00	0	0
587734	2.596000e+00	-3.863023e+01	1.812336e+02	0	0
589687	2.596000e+00	-3.599057e+01	1.509141e+02	0	0
591641	2.596000e+00	-4.311128e+01	3.958761e+00	0	0
593594	2.596945e+00	-4.259210e+01	4.918871e+00	0	0
595547	2.597000e+00	-3.893542e+01	-1.808698e+02	0	0
597500	2.597000e+00	-5.634076e+01	-1.720077e+02	0	0
599453	2.597000e+00	-4.113459e+01	-1.160424e+02	0	0
601406	2.597945e+00	-4.872638e+01	-3.402773e+00	0	0
603359	2.598000e+00	-6.180463e+01	2.765064e+00	0	0
605312	2.598000e+00	-6.864704e+01	-4.326618e+00	0	0
607266	2.598946e+00	-4.349884e+01	1.474234e+02	0	0
609219	2.599000e+00	-4.520099e+01	1.955309e+02	0	0
611172	2.599000e+00	-4.011174e+01	4.448706e+00	0	0
613125	2.599000e+00	-2.516117e+01	-2.974687e+00	0	0
615078	2.599000e+00	-4.319391e+01	-9.113044e+01	0	0
617031	2.599946e+00	-3.719088e+01	-1.932070e+02	0	0
618984	2.600000e+00	-5.871653e+01	-1.101903e+02	0	0
620937	2.600000e+00	-5.353300e+01	-9.889204e+00	0	0
622891	2.600000e+00	-6.879788e+01	-6.471409e+00	0	0
624844	2.600947e+00	-6.395967e+01	-9.662027e+00	0	0
626797	2.601000e+00	-6.680990e+01	9.144782e+01	0	0
628750	2.601000e+00	-5.454235e+01	1.780742e+02	0	0
630703	2.601000e+00	-6.022744e+01	4.118379e+01	0	0
632656	2.601000e+00	-5.596378e+01	-4.363982e+00	0	0
634609	2.601947e+00	-5.293571e+01	-5.843588e+01	0	0
636562	2.602000e+00	-5.773269e+01	-1.813101e+02	0	0
638516	2.602000e+00	-7.578494e+01	-1.239306e+02	0	0
640469	2.602948e+00	-7.626280e+01	-5.680868e+01	0	0
642422	2.603000e+00	-8.674169e+01	-1.953021e+00	0	0
644375	2.603000e+00	-8.517477e+01	-3.431409e-01	0	0
646328	2.603000e+00	-7.043450e+01	4.213973e+01	0	0
648281	2.603948e+00	-7.248932e+01	1.791949e+02	0	0
650234	2.604000e+00	-5.014423e+01	9.216283e+01	0	0
652187	2.604000e+00	-3.862929e+01	1.147050e+00	0	0
654141	2.604000e+00	-3.650399e+01	-3.109309e+01	0	0
656094	2.604000e+00	-4.105940e+01	-1.777742e+02	0	0
658047	2.604948e+00	-5.746839e+01	-1.391867e+02	0	0
660000	2.605000e+00	-6.789449e+01	-7.539590e+01	0	0
661953	2.605000e+00	-7.156554e+01	-9.569602e-02	0	0
663906	2.605948e+00	-9.667402e+01	4.783593e+00	0	0
665859	2.606000e+00	-8.834745e+01	-3.088291e+00	0	0
667813	2.606000e+00	-7.905807e+01	1.811833e+02	0	0
669766	2.606000e+00	-7.411760e+01	1.467359e+02	0	0
671719	2.606000e+00	-7.408819e+01	4.059726e+00	0	0
673672	2.606949e+00	-6.928265e+01	5.568134e+00	0	0
675625	2.607000e+00	-6.419503e+01	-1.801967e+02	0	0
677578	2.607000e+00	-7.180026e+01	-1.819173e+02	0	0
679531	2.607949e+00	-8.342804e+01	-1.310111e+02	0	0
681484	2.608000e+00	-7.654651e+01	-6.988718e+00	0	0
683438	2.608000e+00	-9.281812e+01	3.750310e+00	0	0
685391	2.608000e+00	-8.383246e+01	-2.407181e+00	0	0
687344	2.608000e+00	-7.164809e+01	1.419665e+02	0	0
689297	2.608950e+00	-7.367851e+01	1.979403e+02	0	0
691250	2.609000e+00	-7.298494e+01	6.049200e+00	0	0
693203	2.609000e+00	-7.829893e+01	-6.708580e-02	0	0
695156	2.609000e+00	-5.944767e+01	-8.771616e+01	0	0
697109	2.609950e+00	-8.166580e+01	-1.911316e+02	0	0
699063	2.610000e+00	-1.016634e+02	-1.175192e+02	0	0
701016	2.610000e+00	-8.411370e+01	-7.364538e+00	0	0
702969	2.610000e+00	-8.570794e+01	-2.731290e+00	0	0
704922	2.610951e+00	-8.081403e+01	-4.855051e+00	0	0
706875	2.611000e+00	-8.893000e+01	1.038906e+02	0	0
708828	2.611000e+00	-7.471384e+01	1.870726e+02	0	0
710781	2.611000e+00	-7.591005e+01	2.328510e+01	0	0
712734	2.611951e+00	-7.792568e+01	-9.228701e-01	0	0
714688	2.612000e+00	-6.934637e+01	-6.992463e+01	0	0
716641	2.612000e+00	-9.069435e+01	-1.800971e+02	0	0
718594	2.612000e+00	-9.683080e+01	-1.177666e+02	0	0
720547	2.612951e+00	-9.072573e+01	-7.032972e+01	0	0
722500	2.613000e+00	-9.217049e+01	-3.229442e+00	0	0
724453	2.613000e+00	-9.009598e+01	-1.099639e+00	0	0
726406	2.613000e+00	-1.025347e+02	4.436483e+01	0	0
728359	2.613000e+00	-9.982322e+01	1.800283e+02	0	0
730313	2.613952e+00	-6.665415e+01	8.566956e+01	0	0
732266	2.614000e+00	-7.440033e+01	-1.133384e-01	0	0
734219	2.614000e+00	-7.558264e+01	-3.370923e+01	0	0
736172	2.614952e+00	-9.175653e+01	-1.811808e+02	0	0
738125	2.615000e+00	-1.019352e+02	-1.342531e+02	0	0
740078	2.615000e+00	-9.065733e+01	-7.062881e+01	0	0
742031	2.615000e+00	-9.676595e+01	-3.697001e+00	0	0
743984	2.615000e+00	-9.193037e+01	3.492828e-01	0	0
745938	2.615953e+00	-9.659020e+01	-6.628035e+00	0	0
747891	2.616000e+00	-7.495423e+01	1.752434e+02	0	0
749844	2.616000e+00	-4.116149e+01	1.510136e+02	0	0
751797	2.616000e+00	4.493889e+00	6.637503e-01	0	0
753750	2.616000e+00	2.784980e+01	2.124239e+00	0	0
755703	2.616953e+00	3.355252e+01	-1.802897e+02	0	0
757656	2.617000e+00	5.700575e+01	-1.614900e+02	0	0
759609	2.617000e+00	6.280503e+01	-1.125110e+02	0	0
761563	2.617953e+00	4.803100e+01	-5.887909e+00	0	0
763516	2.618000e+00	4.506917e+01	-6.376573e-01	0	0
765469	2.618000e+00	3.959879e+01	-6.742542e+00	0	0
767422	2.618000e+00	4.061511e+01	1.550307e+02	0	0
769375	2.618000e+00	5.469696e+01	1.912223e+02	0	0
771328	2.618954e+00	5.130394e+01	2.125244e+00	0	0
773281	2.619000e+00	8.187267e+01	-3.842991e+00	0	0
775234	2.619000e+00	9.147480e+01	-8.090501e+01	0	0
777188	2.619000e+00	7.971194e+01	-1.919012e+02	0	0
779141	2.619954e+00	1.011615e+02	-1.241363e+02	0	0
781094	2.620000e+00	1.096520e+02	-6.650856e+00	0	0
783047	2.620000e+00	9.044222e+01	-1.849476e+00	0	0
785000	2.620000e+00	1.153521e+02	-4.701828e+00	0	0
786953	2.620954e+00	1.280441e+02	1.035991e+02	0	0
788906	2.621000e+00	1.445485e+02	1.883297e+02	0	0
790859	2.621000e+00	1.369810e+02	2.194823e+01	0	0
792813	2.621000e+00	1.495421e+02	-1.523428e+00	0	0
794766	2.621000e+00	1.408286e+02	-6.572351e+01	0	0
796719	2.621955e+00	1.326854e+02	-1.845425e+02	0	0
798672	2.622000e+00	1.200511e+02	-1.179949e+02	0	0
800625	2.622000e+00	1.131826e+02	-6.429471e+01	0	0
802578	2.622000e+00	1.172861e+02	-2.926266e+00	0	0
804531	2.622955e+00	1.113204e+02	-1.832225e+00	0	0
806484	2.623000e+00	1.044532e+02	5.838682e+01	0	0
808438	2.623000e+00	9.193983e+01	1.785000e+02	0	0
810391	2.623000e+00	9.153011e+01	8.698225e+01	0	0
812344	2.623956e+00	6.746493e+01	6.469503e-01	0	0
814297	2.624000e+00	4.640356e+01	-2.563703e+01	0	0
816250	2.624000e+00	-6.944325e+00	-1.769975e+02	0	0
818203	2.624000e+00	-2.023453e+01	-1.450965e+02	0	0
820156	2.624000e+00	-3.223485e+01	-9.311984e+01	0	0
822109	2.624956e+00	-4.892868e+01	-2.753217e+00	0	0
824063	2.625000e+00	-6.229591e+01	1.847487e+00	0	0
826016	2.625000e+00	-9.164846e+01	-5.440540e+00	0	0
827969	2.625000e+00	-1.032204e+02	1.775967e+02	0	0
829922	2.625956e+00	-1.009747e+02	1.191083e+02	0	0
831875	2.626000e+00	-9.762126e+01	-2.098684e-01	0	0
833828	2.626000e+00	-1.059975e+02	2.683306e+00	0	0
835781	2.626000e+00	-1.239505e+02	-1.800186e+02	0	0
837734	2.626000e+00	-1.406937e+02	-1.576062e+02	0	0
839688	2.626957e+00	-1.442065e+02	-9.818179e+01	0	0
841641	2.627000e+00	-1.281139e+02	-4.200220e+00	0	0
843594	2.627000e+00	-1.477911e+02	1.731843e-01	0	0
845547	2.627000e+00	-1.474639e+02	-5.511760e+00	0	0
847500	2.627957e+00	-1.390389e+02	1.620343e+02	0	0
849453	2.628000e+00	-1.528930e+02	1.883233e+02	0	0
851406	2.628000e+00	-1.686887e+02	3.219363e+00	0	0
853359	2.628000e+00	-1.563419e+02	-2.473549e-01	0	0
855313	2.628000e+00	-1.408534e+02	-1.082828e+02	0	0
857266	2.628958e+00	-1.420721e+02	-1.857588e+02	0	0
859219	2.629000e+00	-1.375887e+02	-1.209425e+02	0	0
861172	2.629000e+00	-1.720323e+02	-3.664744e+00	0	0
863125	2.629000e+00	-1.954350e+02	5.807965e-01	0	0
865078	2.629958e+00	-1.822338e+02	-3.274638e+00	0	0
867031	2.630000e+00	-1.886087e+02	1.176332e+02	0	0
868984	2.630000e+00	-1.771850e+02	1.892006e+02	0	0
870938	2.630000e+00	-1.770169e+02	2.362327e+01	0	0
872891	2.630000e+00	-1.680781e+02	-1.427556e+00	0	0
874844	2.630959e+00	-1.746231e+02	-7.087058e+01	0	0
876797	2.631000e+00	-1.684355e+02	-1.879891e+02	0	0
878750	2.631000e+00	-1.767263e+02	-1.220082e+02	0	0
880703	2.631000e+00	-1.857453e+02	-4.429982e+01	0	0
882656	2.631000e+00	-1.747404e+02	-1.604138e+00	0	0
884609	2.631959e+00	-1.800726e+02	-2.009441e+00	0	0
886563	2.632000e+00	-1.755958e+02	6.845277e+01	0	0
888516	2.632000e+00	-1.558220e+02	1.831271e+02	0	0
890469	2.632000e+00	-1.474552e+02	9.623770e+01	0	0
892422	2.632000e+00	-1.609063e+02	-1.213328e-01	0	0
894375	2.632960e+00	-1.736733e+02	-4.080926e+01	0	0
896328	2.633000e+00	-2.053848e+02	-1.828234e+02	0	0
898281	2.633000e+00	-2.348774e+02	-1.496080e+02	0	0
900234	2.633000e+00	-2.744179e+02	-7.488269e+01	0	0
902188	2.633960e+00	-2.579381e+02	-3.839256e+00	0	0
904141	2.634000e+00	-2.499966e+02	-7.464609e-01	0	0
906094	2.634000e+00	-1.708343e+02	1.527631e+00	0	0
908047	2.634000e+00	-7.875205e+01	1.770212e+02	0	0
910000	2.634960e+00	3.199799e+01	1.137656e+02	0	0
911953	2.635000e+00	1.118316e+02	-1.344841e+00	0	0
913906	2.635000e+00	2.130734e+02	1.742328e+00	0	0
915859	2.635000e+00	4.032288e+02	-1.816374e+02	0	0
917813	2.635000e+00	6.973538e+02	-1.476384e+02	0	0
919766	2.635000e+00	9.102284e+02	-1.123196e+02	0	0
921719	2.635961e+00	1.164023e+03	-3.574944e+00	0	0
923672	2.636000e+00	1.424123e+03	1.841834e+00	0	0
925625	2.636000e+00	1.650309e+03	-4.277812e+00	0	0
927578	2.636961e+00	1.805800e+03	1.836515e+02	0	0
929531	2.637000e+00	1.695115e+03	1.592767e+02	0	0
931484	2.637000e+00	1.588484e+03	2.899065e+00	0	0
933438	2.637000e+00	1.276589e+03	7.838061e-01	0	0
935391	2.637000e+00	9.673923e+02	-1.084484e+02	0	0
937344	2.637000e+00	7.244009e+02	-1.919338e+02	0	0
939297	2.637962e+00	5.605796e+02	-1.287916e+02	0	0
941250	2.638000e+00	3.712299e+02	-5.381824e+00	0	0
943203	2.638000e+00	5.537170e+01	-1.593744e+00	0	0
945156	2.638000e+00	-2.494716e+02	-5.010336e+00	0	0
947109	2.638962e+00	-3.330068e+02	1.076518e+02	0	0
949063	2.639000e+00	-3.428019e+02	1.897047e+02	0	0
951016	2.639000e+00	-3.264135e+02	2.255347e+01	0	0
952969	2.639000e+00	-2.881723e+02	-3.358068e+00	0	0
954922	2.639000e+00	-2.809951e+02	-7.926729e+01	0	0
956875	2.639962e+00	-2.273290e+02	-1.920026e+02	0	0
958828	2.640000e+00	-2.172812e+02	-1.093244e+02	0	0
960781	2.640000e+00	-1.816083e+02	-1.876780e+01	0	0
962734	2.640000e+00	-1.567007e+02	-5.945337e+00	0	0
964688	2.640963e+00	-1.476831e+02	-7.563208e+00	0	0
966641	2.641000e+00	-1.458935e+02	8.858365e+01	0	0
968594	2.641000e+00	-1.271088e+02	1.758034e+02	0	0
970547	2.641000e+00	-1.147818e+02	7.988502e+01	0	0
972500	2.641000e+00	-8.723339e+01	-1.849067e+00	0	0
974453	2.641963e+00	-1.231648e+02	-2.870369e+01	0	0
976406	2.642000e+00	-1.291213e+02	-1.768422e+02	0	0
978359	2.642000e+00	-1.466450e+02	-1.480390e+02	0	0
980313	2.642000e+00	-1.438044e+02	-7.938245e+01	0	0
982266	2.642964e+00	-1.453891e+02	-7.029521e-01	0	0
984219	2.643000e+00	-1.597323e+02	3.877426e+00	0	0
986172	2.643000e+00	-1.467500e+02	-1.654859e+00	0	0
988125	2.643000e+00	-1.379722e+02	1.781380e+02	0	0
990078	2.643000e+00	-1.325045e+02	1.046358e+02	0	0
992031	2.643000e+00	-1.291320e+02	1.203439e-01	0	0
993984	2.643964e+00	-1.242366e+02	-1.382918e+00	0	0
995938	2.644000e+00	-1.239738e+02	-1.781229e+02	0	0
997891	2.644000e+00	-1.325480e+02	-1.533637e+02	0	0
999844	2.644000e+00	-1.406949e+02	-9.472452e+01	0	0
1001797	2.644965e+00	-1.227909e+02	-2.060049e+00	0	0
1003750	2.645000e+00	-1.248204e+02	8.635990e-01	0	0
1005703	2.645000e+00	-1.212617e+02	-6.195019e+00	0	0
1007656	2.645000e+00	-1.253273e+02	1.765556e+02	0	0
1009609	2.645000e+00	-1.224253e+02	1.756065e+02	0	0
1011563	2.645000e+00	-1.372495e+02	1.012955e-01	0	0
1013516	2.645965e+00	-1.311850e+02	-9.833309e-01	0	0
1015469	2.646000e+00	-1.242453e+02	-1.023526e+02	0	0
1017422	2.646000e+00	-1.371420e+02	-1.915174e+02	0	0
1019375	2.646000e+00	-1.379693e+02	-1.327680e+02	0	0
1021328	2.646965e+00	-1.457476e+02	-5.310238e+00	0	0
1023281	2.647000e+00	-1.371559e+02	-1.747501e+00	0	0
1025234	2.647000e+00	-1.357632e+02	-3.527405e+00	0	0
1027188	2.647000e+00	-1.288832e+02	1.019115e+02	0	0
1029141	2.647000e+00	-1.129720e+02	1.947598e+02	0	0
1031094	2.647966e+00	-9.804395e+01	4.910826e+00	0	0
1033047	2.648000e+00	-1.059829e+02	-2.845616e+00	0	0
1035000	2.648000e+00	-9.418768e+01	-7.726766e+01	0	0
1036953	2.648000e+00	-9.781135e+01	-1.947537e+02	0	0
1038906	2.648000e+00	-9.994973e+01	-1.151070e+02	0	0
1040859	2.648966e+00	-9.947057e+01	-1.387501e+01	0	0
1042813	2.649000e+00	-1.045762e+02	-2.205961e+00	0	0
1044766	2.649000e+00	-9.341740e+01	-3.362746e+00	0	0
1046719	2.649000e+00	-9.166008e+01	7.203876e+01	0	0
1048672	2.649000e+00	-8.158288e+01	1.833096e+02	0	0
1050625	2.649967e+00	-1.036015e+02	7.810371e+01	0	0
1052578	2.649033e+00	-7.305010e+01	-1.965441e+00	0	0
1054531	2.649967e+00	-7.763158e+01	-4.209175e+01	0	0
1056484	2.650000e+00	-8.364986e+01	-1.838852e+02	0	0
1058438	2.650000e+00	-8.299190e+01	-1.360776e+02	0	0
1060391	2.650000e+00	-9.662049e+01	-7.049977e+01	0	0
1062344	2.650000e+00	-7.442138e+01	-3.798204e+00	0	0
1064297	2.650968e+00	-7.259951e+01	-1.565885e+00	0	0
1066250	2.651000e+00	-7.896602e+01	1.184960e+01	0	0
1068203	2.651000e+00	-6.405379e+01	1.766366e+02	0	0
1070156	2.651000e+00	-6.380681e+01	1.281699e+02	0	0
1072109	2.651000e+00	-4.343803e+01	-1.157366e+00	0	0
1074063	2.651968e+00	-4.940826e+01	8.120316e-01	0	0
1076016	2.652000e+00	-4.530882e+01	-1.814910e+02	0	0
1077969	2.652000e+00	-4.031070e+01	-1.406080e+02	0	0
1079922	2.652000e+00	-4.662348e+01	-7.707712e+01	0	0
1081875	2.652000e+00	-4.187125e+01	-7.092129e+00	0	0
1083828	2.652000e+00	-5.526847e+01	-4.300375e+00	0	0
1085781	2.652968e+00	-6.688209e+01	-8.189920e+00	0	0
1087734	2.653000e+00	-5.848987e+01	1.723590e+02	0	0
1089688	2.653000e+00	-2.695752e+01	1.836474e+02	0	0
1091641	2.653000e+00	2.307158e+00	1.732330e+00	0	0
1093594	2.653000e+00	-2.717656e+00	3.267336e-01	0	0
1095547	2.653000e+00	-2.455796e-01	-1.365148e+02	0	0
1097500	2.653969e+00	2.970338e+00	-1.854477e+02	0	0
1099453	2.654000e+00	-7.616029e+00	-1.256214e+02	0	0
1101406	2.654000e+00	-1.083533e+01	1.161306e+00	0	0
1103359	2.654000e+00	-5.455051e+00	5.773648e+00	0	0
1105313	2.654000e+00	9.200789e+00	3.186539e+00	0	0
1107266	2.654000e+00	2.256537e+00	1.094321e+02	0	0
1109219	2.654970e+00	3.140714e+01	1.921400e+02	0	0
1111172	2.655000e+00	2.072812e+01	2.418266e+00	0	0
1113125	2.655000e+00	5.911078e+01	-2.446404e+00	0	0
1115078	2.655000e+00	6.847191e+01	-5.793604e+01	0	0
1117031	2.655000e+00	5.861785e+01	-1.919737e+02	0	0
1118984	2.655000e+00	6.466671e+01	-1.093059e+02	0	0
1120938	2.655971e+00	6.357839e+01	-1.422458e+01	0	0
1122891	2.656000e+00	6.387285e+01	-9.488425e+00	0	0
1124844	2.656000e+00	6.451376e+01	-1.013645e+01	0	0
1126797	2.656000e+00	8.525268e+01	9.853660e+01	0	0
1128750	2.656000e+00	1.111602e+02	1.783900e+02	0	0
1130703	2.656971e+00	1.165219e+02	7.185924e+01	0	0
1132656	2.657000e+00	1.285151e+02	-2.496203e+00	0	0
1134609	2.657000e+00	1.458532e+02	-4.098642e+01	0	0
1136563	2.657000e+00	1.350400e+02	-1.767135e+02	0	0
1138516	2.657000e+00	1.446053e+02	-1.244377e+02	0	0
1140469	2.657000e+00	1.520646e+02	-6.562258e+01	0	0
1142422	2.657000e+00	1.641697e+02	-1.446636e+00	0	0
1144375	2.657000e+00	1.543445e+02	-6.464927e-01	0	0
1146328	2.657971e+00	1.575410e+02	9.343752e+00	0	0
1148281	2.658000e+00	1.836728e+02	1.798213e+02	0	0
1150234	2.658000e+00	1.955838e+02	1.224456e+02	0	0
1152188	2.658000e+00	2.170077e+02	2.817609e+00	0	0
1154141	2.658000e+00	2.404164e+02	-8.187121e+00	0	0
1156094	2.658972e+00	2.440050e+02	-1.814296e+02	0	0
1158047	2.659000e+00	2.390604e+02	-1.273217e+02	0	0
1160000	2.659000e+00	2.431469e+02	-8.358509e+01	0	0
1161953	2.659000e+00	2.581822e+02	6.437612e-01	0	0
1163906	2.659000e+00	2.641932e+02	4.387921e+00	0	0
1165859	2.659000e+00	2.831436e+02	4.871907e-03	0	0
1167813	2.659973e+00	3.010243e+02	1.866446e+02	0	0
1169766	2.659027e+00	2.948375e+02	1.621744e+02	0	0
1171719	2.659973e+00	3.022528e+02	3.249375e+00	0	0
1173672	2.660000e+00	3.013208e+02	2.335202e+00	0	0
1175625	2.660000e+00	3.036072e+02	-1.499714e+02	0	0
1177578	2.660000e+00	3.069384e+02	-1.916265e+02	0	0
1179531	2.660000e+00	3.115266e+02	-1.366407e+02	0	0
1181484	2.660000e+00	3.057220e+02	1.134123e-01	0	0
1183438	2.660000e+00	2.928552e+02	3.375483e+00	0	0
1185391	2.660974e+00	3.046569e+02	-9.948365e-02	0	0
1187344	2.661000e+00	3.184900e+02	1.213224e+02	0	0
1189297	2.661000e+00	3.125815e+02	1.946792e+02	0	0
1191250	2.661000e+00	3.054552e+02	5.390902e+00	0	0
1193203	2.661000e+00	2.953541e+02	-2.302129e+00	0	0
1195156	2.661974e+00	2.747873e+02	-8.499949e+01	0	0
1197109	2.662000e+00	2.757245e+02	-1.974586e+02	0	0
1199063	2.662000e+00	2.740648e+02	-1.016509e+02	0	0
1201016	2.662000e+00	2.371923e+02	-1.133388e+01	0	0
1202969	2.662000e+00	2.048707e+02	-1.047239e+01	0	0
1204922	2.662000e+00	1.694926e+02	-1.139800e+01	0	0
1206875	2.662000e+00	1.250757e+02	8.571752e+01	0	0
1208828	2.662000e+00	1.254703e+02	1.788732e+02	0	0
1210781	2.662975e+00	1.066519e+02	6.836250e+01	0	0
1212734	2.663000e+00	9.332793e+01	-6.027906e+00	0	0
1214688	2.663000e+00	6.351651e+01	-4.226905e+01	0	0
1216641	2.663000e+00	3.301811e+01	-1.848885e+02	0	0
1218594	2.663000e+00	1.050614e+01	-1.230837e+02	0	0
1220547	2.663000e+00	-9.494526e+00	-6.735317e+01	0	0
1222500	2.663000e+00	-2.841749e+01	-1.675992e+00	0	0
1224453	2.663976e+00	-4.597781e+01	1.452849e+00	0	0
1226406	2.664000e+00	-7.364798e+01	1.088577e+01	0	0
1228359	2.664000e+00	-7.460426e+01	1.742182e+02	0	0
1230313	2.664000e+00	-8.385879e+01	1.026418e+02	0	0
1232266	2.664000e+00	-8.366660e+01	-7.504645e-01	0	0
1234219	2.664000e+00	-8.776259e+01	-2.027639e+01	0	0
1236172	2.664000e+00	-1.170622e+02	-1.734983e+02	0	0
1238125	2.664976e+00	-1.352449e+02	-1.549356e+02	0	0
1240078	2.665000e+00	-1.357023e+02	-9.539262e+01	0	0
1242031	2.665000e+00	-1.341152e+02	-6.348769e-01	0	0
1243984	2.665000e+00	-1.636644e+02	2.263138e+00	0	0
1245938	2.665000e+00	-1.596355e+02	-1.295176e+00	0	0
1247891	2.665000e+00	-1.690957e+02	1.717209e+02	0	0
1249844	2.665000e+00	-1.735035e+02	1.568544e+02	0	0
1251797	2.665000e+00	-1.736813e+02	4.886740e+00	0	0
1253750	2.665977e+00	-1.807066e+02	4.810917e+00	0	0
1255703	2.666000e+00	-1.887058e+02	-1.510762e+02	0	0
1257656	2.666000e+00	-1.878374e+02	-1.740500e+02	0	0
1259609	2.666000e+00	-1.819288e+02	-1.347805e+02	0	0
1261563	2.666000e+00	-1.871641e+02	-2.662956e+00	0	0
1263516	2.666978e+00	-1.925365e+02	2.432981e+00	0	0
1265469	2.667000e+00	-1.952925e+02	-1.407281e+00	0	0
1267422	2.667000e+00	-1.961119e+02	1.244678e+02	0	0
1269375	2.667000e+00	-1.821307e+02	1.839548e+02	0	0
1271328	2.667000e+00	-1.977643e+02	2.093322e+00	0	0
1273281	2.667000e+00	-2.007585e+02	-7.082670e-01	0	0
1275234	2.667000e+00	-2.107204e+02	-6.584392e+01	0	0
1277188	2.667000e+00	-2.367023e+02	-1.878713e+02	0	0
1279141	2.667979e+00	-2.357656e+02	-9.970568e+01	0	0
1281094	2.668000e+00	-2.205745e+02	-1.138979e+01	0	0
1283047	2.668000e+00	-2.223837e+02	-2.706212e+00	0	0
1285000	2.668000e+00	-2.161888e+02	-4.055497e+00	0	0
1286953	2.668000e+00	-1.960219e+02	8.913946e+01	0	0
1288906	2.668000e+00	-2.024422e+02	1.788667e+02	0	0
1290859	2.668000e+00	-2.017478e+02	4.341184e+01	0	0
1292813	2.668000e+00	-2.077250e+02	-2.785877e+00	0	0
1294766	2.668980e+00	-2.129584e+02	-6.461893e+01	0	0
1296719	2.669000e+00	-2.235796e+02	-1.798075e+02	0	0
1298672	2.669000e+00	-2.332855e+02	-1.186194e+02	0	0
1300625	2.669000e+00	-2.272755e+02	-6.036610e+01	0	0
1302578	2.669000e+00	-2.430480e+02	-1.003209e+00	0	0
1304531	2.669000e+00	-2.252494e+02	5.345392e-01	0	0
1306484	2.669980e+00	-2.157592e+02	1.542156e+01	0	0
1308438	2.670000e+00	-2.144057e+02	1.801002e+02	0	0
1310391	2.670000e+00	-1.931210e+02	1.048505e+02	0	0
1312344	2.670000e+00	-1.971365e+02	7.052450e-01	0	0
1314297	2.670000e+00	-2.000461e+02	-2.020765e+01	0	0
1316250	2.670000e+00	-2.062802e+02	-1.823963e+02	0	0
1318203	2.670000e+00	-2.004562e+02	-1.489731e+02	0	0
1320156	2.670000e+00	-1.984545e+02	-8.827566e+01	0	0
1322109	2.670981e+00	-2.078660e+02	-2.063324e+00	0	0
1324063	2.671000e+00	-2.048269e+02	2.157929e+00	0	0
1326016	2.671000e+00	-2.123485e+02	5.731488e-01	0	0
1327969	2.671000e+00	-1.961267e+02	1.809486e+02	0	0
1329922	2.671000e+00	-1.835372e+02	1.374935e+02	0	0
1331875	2.671000e+00	-1.911748e+02	3.573926e+00	0	0
1333828	2.671000e+00	-1.908543e+02	4.102068e+00	0	0
1335781	2.671000e+00	-1.895255e+02	-1.698970e+02	0	0
1337734	2.671000e+00	-1.895934e+02	-1.748257e+02	0	0
1339688	2.671982e+00	-1.998128e+02	-1.279845e+02	0	0
1341641	2.672000e+00	-2.015124e+02	5.632709e+00	0	0
1343594	2.672000e+00	-2.081080e+02	6.859937e+00	0	0
1345547	2.672000e+00	-1.807478e+02	2.897404e+00	0	0
1347500	2.672000e+00	-1.729333e+02	1.321333e+02	0	0
1349453	2.672982e+00	-1.731412e+02	1.844694e+02	0	0
1351406	2.673000e+00	-1.812808e+02	1.659285e+00	0	0
1353359	2.673000e+00	-1.753412e+02	-4.763765e-01	0	0
1355313	2.673000e+00	-1.708571e+02	-8.050474e+01	0	0
1357266	2.673000e+00	-1.802001e+02	-1.856733e+02	0	0
1359219	2.673000e+00	-1.833847e+02	-1.165069e+02	0	0
1361172	2.673000e+00	-1.919778e+02	-1.082793e+01	0	0
1363125	2.673000e+00	-1.925122e+02	-9.606531e+00	0	0
1365078	2.673000e+00	-2.015333e+02	-9.243792e+00	0	0
1367031	2.673000e+00	-1.912700e+02	8.749272e+01	0	0
1368984	2.673983e+00	-1.769716e+02	1.741845e+02	0	0
1370938	2.674000e+00	-1.655372e+02	5.386634e+01	0	0
1372891	2.674000e+00	-1.571973e+02	-5.526263e-01	0	0
1374844	2.674000e+00	-1.575189e+02	-7.046144e+01	0	0
1376797	2.674000e+00	-1.727949e+02	-1.696077e+02	0	0
1378750	2.674000e+00	-1.755665e+02	-1.222395e+02	0	0
1380703	2.674000e+00	-1.731525e+02	-6.138692e+01	0	0
1382656	2.674984e+00	-1.794130e+02	4.825309e+00	0	0
1384609	2.675000e+00	-2.048130e+02	2.891275e+00	0	0
1386563	2.675000e+00	-2.180472e+02	3.581920e+01	0	0
1388516	2.675000e+00	-2.204210e+02	1.782224e+02	0	0
1390469	2.675000e+00	-2.152699e+02	1.012383e+02	0	0
1392422	2.675000e+00	-1.909409e+02	-1.661907e-01	0	0
1394375	2.675000e+00	-1.742614e+02	-1.933538e+01	0	0
1396328	2.675000e+00	-1.740243e+02	-1.861062e+02	0	0
1398281	2.675000e+00	-1.772142e+02	-1.369842e+02	0	0
1400234	2.675985e+00	-1.907605e+02	-7.914923e+01	0	0
1402188	2.676000e+00	-2.033592e+02	-5.340423e+00	0	0
1404141	2.676000e+00	-1.967308e+02	-1.522952e+00	0	0
1406094	2.676000e+00	-1.939744e+02	-1.913444e+00	0	0
1408047	2.676000e+00	-1.919708e+02	1.774470e+02	0	0
1410000	2.676000e+00	-1.810084e+02	1.386768e+02	0	0
1411953	2.676000e+00	-1.828092e+02	9.278554e-02	0	0
1413906	2.676000e+00	-1.851896e+02	1.430666e+00	0	0
1415859	2.676000e+00	-1.925969e+02	-1.748242e+02	0	0
1417813	2.676986e+00	-1.978487e+02	-1.714590e+02	0	0
1419766	2.677000e+00	-1.823623e+02	-1.113846e+02	0	0
1421719	2.677000e+00	-1.988381e+02	5.591658e+00	0	0
1423672	2.677000e+00	-2.038612e+02	6.091827e+00	0	0
1425625	2.677000e+00	-1.948713e+02	2.810638e+00	0	0
1427578	2.677000e+00	-2.050949e+02	1.331619e+02	0	0
1429531	2.677000e+00	-2.016271e+02	1.854486e+02	0	0
1431484	2.677986e+00	-2.157215e+02	9.486507e-01	0	0
1433438	2.678000e+00	-1.997175e+02	-6.328788e-01	0	0
1435391	2.678000e+00	-1.955731e+02	-8.066942e+01	0	0
1437344	2.678000e+00	-2.223948e+02	-1.873182e+02	0	0
1439297	2.678000e+00	-2.088687e+02	-1.043223e+02	0	0
1441250	2.678000e+00	-2.148986e+02	-8.087354e+00	0	0
1443203	2.678000e+00	-2.150446e+02	-6.726145e+00	0	0
1445156	2.678000e+00	-2.120679e+02	-5.920961e+00	0	0
1447109	2.678000e+00	-2.080452e+02	1.072874e+02	0	0
1449063	2.678000e+00	-2.041675e+02	1.776310e+02	0	0
1451016	2.678000e+00	-1.805894e+02	3.889133e+01	0	0
1452969	2.678988e+00	-1.897695e+02	-3.790226e-01	0	0
1454922	2.679000e+00	-1.851651e+02	-7.230932e+01	0	0
1456875	2.679000e+00	-1.864560e+02	-1.735801e+02	0	0
1458828	2.679000e+00	-2.141221e+02	-1.167569e+02	0	0
1460781	2.679000e+00	-1.996931e+02	-5.082618e+01	0	0
1462734	2.679988e+00	-2.087267e+02	1.797664e+00	0	0
1464688	2.680000e+00	-2.053934e+02	1.231715e+00	0	0
1466641	2.680000e+00	-2.037683e+02	2.852838e+01	0	0
1468594	2.680000e+00	-2.042934e+02	1.753424e+02	0	0
1470547	2.680000e+00	-1.779791e+02	9.360321e+01	0	0
1472500	2.680000e+00	-1.403276e+02	-8.252119e-01	0	0
1474453	2.680000e+00	-1.210669e+02	-2.747247e+01	0	0
1476406	2.680000e+00	-1.287746e+02	-1.787059e+02	0	0
1478359	2.680000e+00	-1.079118e+02	-1.335927e+02	0	0
1480313	2.680000e+00	-1.055919e+02	-6.491191e+01	0	0
1482266	2.680990e+00	-1.131915e+02	-1.897652e+00	0	0
1484219	2.680010e+00	-1.100970e+02	-1.322522e+00	0	0
1486172	2.680990e+00	-9.638944e+01	-3.002677e+00	0	0
1488125	2.681000e+00	-7.375999e+01	1.769393e+02	0	0
1490078	2.681000e+00	-7.423944e+01	1.425926e+02	0	0
1492031	2.681000e+00	-5.285787e+01	-1.623282e+00	0	0
1493984	2.681000e+00	-5.007260e+01	-1.204581e+00	0	0
1495938	2.681000e+00	-4.741515e+01	-1.828063e+02	0	0
1497891	2.681000e+00	-5.168258e+01	-1.577233e+02	0	0
1499844	2.681000e+00	-3.017881e+01	-1.153824e+02	0	0
1501797	2.681990e+00	-3.218465e+01	-3.244207e+00	0	0
1503750	2.682000e+00	-3.012216e+01	-2.202375e+00	0	0
1505703	2.682000e+00	-2.830215e+01	-3.557804e+00	0	0
1507656	2.682000e+00	-1.144420e+01	1.569936e+02	0	0
1509609	2.682000e+00	1.968359e+01	1.824515e+02	0	0
1511563	2.682000e+00	5.188150e+01	-1.883231e+00	0	0
1513516	2.682000e+00	6.138939e+01	-2.960601e+00	0	0
1515469	2.682991e+00	4.420571e+01	-7.206546e+01	0	0
1517422	2.682009e+00	2.616962e+01	-1.863129e+02	0	0
1519375	2.682991e+00	1.199385e+01	-1.171484e+02	0	0
1521328	2.683000e+00	1.774808e+01	-3.511008e+00	0	0
1523281	2.683000e+00	-1.066783e+01	-2.666622e+00	0	0
1525234	2.683000e+00	-4.357830e+00	-3.315415e+00	0	0
1527188	2.683000e+00	-1.013960e+01	1.166457e+02	0	0
1529141	2.683000e+00	-1.241081e+00	1.794934e+02	0	0
1531094	2.683000e+00	-8.194940e+00	4.197820e+01	0	0
1533047	2.683000e+00	-4.673513e+01	-1.167326e+00	0	0
1535000	2.683000e+00	-5.644888e+01	-6.319732e+01	0	0
1536953	2.683000e+00	-1.009211e+02	-1.818668e+02	0	0
1538906	2.683992e+00	-1.194696e+02	-1.092937e+02	0	0
1540859	2.684000e+00	-1.298389e+02	-5.301608e+01	0	0
1542813	2.684000e+00	-1.635595e+02	-1.503138e+00	0	0
1544766	2.684000e+00	-1.876537e+02	-1.359980e+00	0	0
1546719	2.684000e+00	-1.912115e+02	5.206765e+01	0	0
1548672	2.684000e+00	-1.865350e+02	1.816691e+02	0	0
1550625	2.684000e+00	-2.075214e+02	8.406801e+01	0	0
1552578	2.684000e+00	-1.887057e+02	-9.249591e-01	0	0
1554531	2.684000e+00	-2.245359e+02	-3.603794e+01	0	0
1556484	2.684993e+00	-2.375768e+02	-1.856985e+02	0	0
1558438	2.685000e+00	-2.449614e+02	-1.485601e+02	0	0
1560391	2.685000e+00	-2.681419e+02	-7.642176e+01	0	0
1562344	2.685000e+00	-2.828256e+02	-1.194361e+00	0	0
1564297	2.685000e+00	-2.840771e+02	-8.300377e-01	0	0
1566250	2.685000e+00	-2.672721e+02	-2.113435e+00	0	0
1568203	2.685994e+00	-2.514477e+02	1.864359e+02	0	0
1570156	2.685006e+00	-2.632122e+02	1.355597e+02	0	0
1572109	2.685000e+00	-2.779013e+02	-1.334696e+00	0	0
1574063	2.685994e+00	-2.684894e+02	-9.684742e-01	0	0
1576016	2.686000e+00	-2.784248e+02	-1.912440e+02	0	0
1577969	2.686000e+00	-2.826718e+02	-1.551652e+02	0	0
1579922	2.686000e+00	-2.927860e+02	-1.048414e+02	0	0
1581875	2.686000e+00	-3.056054e+02	-1.905312e+00	0	0
1583828	2.686000e+00	-3.017333e+02	-1.310446e+00	0	0
1585781	2.686000e+00	-2.916337e+02	-2.013987e+00	0	0
1587734	2.686000e+00	-2.942826e+02	1.606358e+02	0	0
1589688	2.686995e+00	-3.050678e+02	1.906766e+02	0	0
1591641	2.687000e+00	-3.023518e+02	-1.059263e+00	0	0
1593594	2.687000e+00	-2.907866e+02	-1.475284e+00	0	0
1595547	2.687000e+00	-2.959474e+02	-1.062389e+02	0	0
1597500	2.687000e+00	-2.982127e+02	-1.913996e+02	0	0
1599453	2.687000e+00	-3.067490e+02	-1.122596e+02	0	0
1601406	2.687000e+00	-2.966287e+02	-1.814364e+00	0	0
1603359	2.687000e+00	-3.111703e+02	-1.436470e+00	0	0
1605313	2.687000e+00	-3.088298e+02	-1.756352e+00	0	0
1607266	2.687996e+00	-3.147927e+02	1.039661e+02	0	0
1609219	2.688000e+00	-3.204706e+02	1.787466e+02	0	0
1611172	2.688000e+00	-2.973656e+02	2.565165e+01	0	0
1613125	2.688000e+00	-2.921759e+02	-1.517717e+00	0	0
1615078	2.688000e+00	-2.718038e+02	-6.838058e+01	0	0
1617031	2.688000e+00	-2.864721e+02	-1.766279e+02	0	0
1618984	2.688000e+00	-3.034300e+02	-1.141209e+02	0	0
1620938	2.688000e+00	-3.159699e+02	-4.406660e+01	0	0
1622891	2.688000e+00	-3.761760e+02	-1.598302e+00	0	0
1624844	2.688000e+00	-3.893927e+02	-1.606083e+00	0	0
1626797	2.688997e+00	-3.898275e+02	6.428410e+01	0	0
1628750	2.689000e+00	-3.802427e+02	1.716432e+02	0	0
1630703	2.689000e+00	-3.319144e+02	9.173304e+01	0	0
1632656	2.689000e+00	-2.378158e+02	-1.467977e+00	0	0
1634609	2.689000e+00	-1.409916e+02	-2.849898e+01	0	0
1636563	2.689000e+00	-4.291858e+01	-1.755527e+02	0	0
1638516	2.689000e+00	5.587280e+01	-1.367429e+02	0	0
1640469	2.689000e+00	2.058217e+02	-7.353935e+01	0	0
1642422	2.689000e+00	4.401220e+02	-1.504658e+00	0	0
1644375	2.689998e+00	6.961920e+02	-1.033846e+00	0	0
1646328	2.690000e+00	9.410415e+02	-1.117294e+00	0	0
1648281	2.690000e+00	1.189458e+03	1.787476e+02	0	0
1650234	2.690000e+00	1.439931e+03	1.204166e+02	0	0
1652188	2.690000e+00	1.637235e+03	-4.751001e-01	0	0
1654141	2.690000e+00	1.610592e+03	-3.616907e-01	0	0
1656094	2.690000e+00	1.503582e+03	-1.840252e+02	0	0
1658047	2.690000e+00	1.252827e+03	-1.558514e+02	0	0
1660000	2.690000e+00	9.025186e+02	-1.078580e+02	0	0
1661953	2.690000e+00	7.193803e+02	-1.004723e+00	0	0
1663906	2.690000e+00	4.871934e+02	-1.107970e+00	0	0
1665859	2.690000e+00	3.458232e+02	-1.524933e+00	0	0
1667813	2.690999e+00	1.142250e+02	1.672042e+02	0	0
1669766	2.691000e+00	-1.711534e+02	1.864294e+02	0	0
1671719	2.691000e+00	-2.963607e+02	-1.695483e+00	0	0
1673672	2.691000e+00	-3.917478e+02	-1.769650e+00	0	0
1675625	2.691000e+00	-4.468314e+02	-9.900251e+01	0	0
1677578	2.691000e+00	-4.633549e+02	-1.905913e+02	0	0
1679531	2.691000e+00	-4.295774e+02	-1.142031e+02	0	0
1681484	2.691000e+00	-4.158552e+02	-1.906303e+00	0	0
1683438	2.692000e+00	-3.886340e+02	-1.924362e+00	0	0
1685391	2.692000e+00	-3.495176e+02	-1.925030e+00	0	0
1687344	2.692000e+00	-3.164129e+02	1.022492e+02	0	0
1689297	2.692000e+00	-2.951252e+02	1.866820e+02	0	0
1691250	2.692000e+00	-2.801731e+02	1.116145e+01	0	0
1693203	2.692000e+00	-2.555093e+02	-2.090232e+00	0	0
1695156	2.692000e+00	-2.540382e+02	-8.130972e+01	0	0
1697109	2.692000e+00	-2.459896e+02	-1.901748e+02	0	0
1699063	2.692000e+00	-2.636805e+02	-9.889904e+01	0	0
1701016	2.692000e+00	-2.684092e+02	-2.874278e+01	0	0
1702969	2.692001e+00	-2.704327e+02	-2.300639e+00	0	0
1704922	2.693000e+00	-2.668730e+02	-2.302139e+00	0	0
1706875	2.693000e+00	-2.784306e+02	7.982320e+01	0	0
1708828	2.693000e+00	-2.590008e+02	1.826280e+02	0	0
1710781	2.693000e+00	-2.571962e+02	9.110283e+01	0	0
1712734	2.693000e+00	-2.487989e+02	-2.760599e+00	0	0
1714688	2.693000e+00	-2.431806e+02	-2.251814e+01	0	0
1716641	2.693000e+00	-2.417458e+02	-1.856113e+02	0	0
1718594	2.693000e+00	-2.411224e+02	-1.258972e+02	0	0
1720547	2.693000e+00	-2.517301e+02	-5.130810e+01	0	0
1722500	2.693002e+00	-2.599970e+02	-2.469428e+00	0	0
1724453	2.694000e+00	-2.644661e+02	-2.604298e+00	0	0
1726406	2.694000e+00	-2.650355e+02	5.791482e+00	0	0
1728359	2.694000e+00	-2.548329e+02	1.780487e+02	0	0
1730313	2.694000e+00	-2.621181e+02	1.292004e+02	0	0
1732266	2.694000e+00	-2.576305e+02	-2.634844e+00	0	0
1734219	2.694000e+00	-2.492984e+02	-2.823466e+00	0	0
1736172	2.694000e+00	-2.642942e+02	-1.839741e+02	0	0
1738125	2.694000e+00	-2.449105e+02	-1.456949e+02	0	0
1740078	2.694003e+00	-2.546055e+02	-9.831311e+01	0	0
1742031	2.695000e+00	-2.528186e+02	-2.280638e+00	0	0
1743984	2.695000e+00	-2.656427e+02	-2.595366e+00	0	0
1745938	2.695000e+00	-2.593138e+02	-2.014101e+00	0	0
1747891	2.695000e+00	-2.428713e+02	1.830435e+02	0	0
1749844	2.695000e+00	-2.296889e+02	1.683827e+02	0	0
1751797	2.695000e+00	-2.257253e+02	-2.669943e+00	0	0
1753750	2.695000e+00	-2.390560e+02	-2.414490e+00	0	0
1755703	2.695000e+00	-2.312445e+02	-1.055553e+02	0	0
1757656	2.695000e+00	-2.285611e+02	-1.886873e+02	0	0
1759609	2.695000e+00	-2.437135e+02	-1.220893e+02	0	0
1761563	2.695000e+00	-2.312122e+02	-1.886897e+00	0	0
1763516	2.695004e+00	-2.263092e+02	-2.292565e+00	0	0
1765469	2.696000e+00	-2.225702e+02	-1.802257e+00	0	0
1767422	2.696000e+00	-2.270431e+02	1.238308e+02	0	0
1769375	2.696000e+00	-2.139123e+02	1.822660e+02	0	0
1771328	2.696000e+00	-2.066882e+02	5.020659e+00	0	0
1773281	2.696000e+00	-1.989949e+02	-1.917570e+00	0	0
1775234	2.696000e+00	-2.042892e+02	-6.974711e+01	0	0
1777188	2.696000e+00	-2.038701e+02	-1.830177e+02	0	0
1779141	2.696000e+00	-2.212578e+02	-8.517278e+01	0	0
1781094	2.696005e+00	-2.062232e+02	-2.107986e+01	0	0
1783047	2.697000e+00	-1.993859e+02	-1.822874e+00	0	0
1785000	2.697000e+00	-2.005200e+02	-1.633774e+00	0	0
1786953	2.697000e+00	-1.985338e+02	7.672033e+01	0	0
1788906	2.697000e+00	-1.850692e+02	1.730531e+02	0	0
1790859	2.697000e+00	-1.633853e+02	8.238916e+01	0	0
1792813	2.697000e+00	-1.608508e+02	-1.914275e+00	0	0
1794766	2.697000e+00	-1.440456e+02	-4.762528e+01	0	0
1796719	2.697000e+00	-1.606050e+02	-1.772636e+02	0	0
1798672	2.697000e+00	-1.486999e+02	-1.479996e+02	0	0
1800625	2.697006e+00	-1.276991e+02	-6.769711e+01	0	0
1802578	2.698000e+00	-1.648266e+02	-6.370085e-01	0	0
1804531	2.698000e+00	-1.591810e+02	-1.326587e+00	0	0
1806484	2.698000e+00	-1.634157e+02	7.047961e-02	0	0
1808438	2.698000e+00	-1.729258e+02	1.819731e+02	0	0
1810391	2.698000e+00	-1.442011e+02	1.173912e+02	0	0
1812344	2.698000e+00	-1.385508e+02	3.980374e-03	0	0
1814297	2.698000e+00	-1.259060e+02	-1.609436e+00	0	0
1816250	2.698000e+00	-1.253505e+02	-1.869736e+02	0	0
1818203	2.698000e+00	-1.066952e+02	-1.478423e+02	0	0
1820156	2.698000e+00	-1.098599e+02	-9.226429e+01	0	0
1822109	2.698000e+00	-9.614554e+01	-1.432056e-01	0	0
1824063	2.698008e+00	-1.150396e+02	-1.962146e-01	0	0
1826016	2.699000e+00	-1.007476e+02	8.481214e-01	0	0
1827969	2.699000e+00	-1.010177e+02	1.866010e+02	0	0
1829922	2.699000e+00	-9.291504e+01	1.782877e+02	0	0
1831875	2.699000e+00	-7.483673e+01	-2.021717e+00	0	0
1833828	2.699000e+00	-6.966921e+01	-1.892125e+00	0	0
1835781	2.699000e+00	-7.304134e+01	-1.271032e+02	0	0
1837734	2.699000e+00	-6.311136e+01	-1.879381e+02	0	0
1839688	2.699000e+00	-6.281474e+01	-1.231656e+02	0	0
1841641	2.699000e+00	-6.566532e+01	-3.854180e-01	0	0
1843594	2.699009e+00	-5.092269e+01	2.781452e-01	0	0
1845547	2.700000e+00	-2.621816e+01	2.040932e+00	0	0
1847500	2.700000e+00	-2.100060e+01	9.936622e+01	0	0
1849453	2.700000e+00	-3.183854e+01	1.882516e+02	0	0
1851406	2.700000e+00	-1.187060e+01	9.638945e-01	0	0
1853359	2.700000e+00	-4.953292e+00	-6.911764e-01	0	0
1855313	2.700000e+00	1.521085e+01	-8.249618e+01	0	0
1857266	2.700000e+00	2.703684e+01	-1.848491e+02	0	0
1859219	2.700000e+00	4.025459e+01	-9.378950e+01	0	0
1861172	2.700000e+00	4.871750e+01	-1.380327e+01	0	0
1863125	2.700010e+00	5.718985e+01	-6.806637e+00	0	0
1865078	2.701000e+00	6.093702e+01	-7.974877e+00	0	0
1867031	2.701000e+00	8.459070e+01	7.970930e+01	0	0
1868984	2.701000e+00	6.877105e+01	1.701641e+02	0	0
1870938	2.701000e+00	8.187153e+01	9.291562e+01	0	0
1872891	2.701000e+00	1.144000e+02	-5.447043e+00	0	0
1874844	2.701000e+00	1.209633e+02	-2.613328e+01	0	0
1876797	2.701000e+00	1.240095e+02	-1.811494e+02	0	0
1878750	2.701000e+00	1.232732e+02	-1.380927e+02	0	0
1880703	2.701000e+00	1.426901e+02	-6.380787e+01	0	0
1882656	2.701000e+00	1.351745e+02	-2.638982e-02	0	0
1884609	2.701011e+00	1.318897e+02	-7.411747e-01	0	0
1886563	2.702000e+00	1.423459e+02	1.443012e+00	0	0
1888516	2.702000e+00	1.622608e+02	1.781403e+02	0	0
1890469	2.702000e+00	1.812345e+02	1.115936e+02	0	0
1892422	2.702000e+00	2.098187e+02	-1.803383e+00	0	0
1894375	2.702000e+00	1.999930e+02	-2.782703e+00	0	0
1896328	2.702000e+00	2.087411e+02	-1.828776e+02	0	0
1898281	2.702000e+00	2.148059e+02	-1.442162e+02	0	0
1900234	2.702000e+00	1.858246e+02	-9.178851e+01	0	0
1902188	2.702000e+00	2.073083e+02	-5.295123e+00	0	0
1904141	2.702000e+00	2.080539e+02	-5.200512e+00	0	0
1906094	2.702000e+00	1.953034e+02	-1.148693e+00	0	0
1908047	2.702000e+00	2.010614e+02	1.796656e+02	0	0
1910000	2.702012e+00	2.116322e+02	1.629574e+02	0	0
1911953	2.703000e+00	2.122135e+02	-9.656978e-02	0	0
1913906	2.703000e+00	2.138841e+02	-1.477243e-01	0	0
1915859	2.703000e+00	2.049538e+02	-1.447102e+02	0	0
1917813	2.703000e+00	1.879634e+02	-1.749855e+02	0	0
1919766	2.703000e+00	1.568112e+02	-1.230994e+02	0	0
1921719	2.703000e+00	1.435988e+02	-4.002874e+00	0	0
1923672	2.703000e+00	1.139301e+02	6.953872e+00	0	0
1925625	2.703013e+00	9.279943e+01	6.066358e+00	0	0
1927578	2.703987e+00	6.457666e+01	1.213573e+02	0	0
1929531	2.703000e+00	5.272268e+01	1.819541e+02	0	0
1931484	2.703013e+00	4.621816e+01	-2.267033e+00	0	0
1933438	2.704000e+00	1.598302e+01	-8.448337e-01	0	0
1935391	2.704000e+00	6.766297e+00	-8.823519e+01	0	0
1937344	2.704000e+00	-1.935287e+01	-1.919523e+02	0	0
1939297	2.704000e+00	-5.164395e+01	-1.096372e+02	0	0
1941250	2.704000e+00	-8.686570e+01	-1.225647e+01	0	0
1943203	2.704000e+00	-9.518874e+01	-1.179270e+01	0	0
1945156	2.704000e+00	-1.135300e+02	-8.737529e+00	0	0
1947109	2.704000e+00	-1.329346e+02	9.304327e+01	0	0
1949063	2.704000e+00	-1.544116e+02	1.772014e+02	0	0
1951016	2.704000e+00	-1.593054e+02	5.408046e+01	0	0
1952969	2.704000e+00	-1.688371e+02	-1.072771e+00	0	0
1954922	2.704000e+00	-1.890574e+02	-5.467393e+01	0	0
1956875	2.704015e+00	-1.985261e+02	-1.759080e+02	0	0
1958828	2.705000e+00	-2.114564e+02	-1.428457e+02	0	0
1960781	2.705000e+00	-2.255034e+02	-7.480385e+01	0	0
1962734	2.705000e+00	-2.438701e+02	8.624865e+00	0	0
1964688	2.705000e+00	-2.552059e+02	5.460548e+00	0	0
1966641	2.705000e+00	-2.521603e+02	5.234596e+00	0	0
1968594	2.705000e+00	-2.442238e+02	1.848599e+02	0	0
1970547	2.705000e+00	-2.529015e+02	8.625740e+01	0	0
1972500	2.705000e+00	-2.447689e+02	5.696071e-01	0	0
1974453	2.705000e+00	-2.348010e+02	-1.228921e+00	0	0
1976406	2.705000e+00	-2.431479e+02	-1.883582e+02	0	0
1978359	2.705000e+00	-2.694890e+02	-1.284084e+02	0	0
1980313	2.705016e+00	-2.609927e+02	-8.597033e+01	0	0
1982266	2.706000e+00	-2.618555e+02	-5.339820e+00	0	0
1984219	2.706000e+00	-2.501043e+02	-6.606037e+00	0	0
1986172	2.706000e+00	-2.772240e+02	-2.334654e+00	0	0
1988125	2.706000e+00	-2.758227e+02	1.842184e+02	0	0
1990078	2.706000e+00	-2.903570e+02	1.564232e+02	0	0
1992031	2.706000e+00	-2.875749e+02	-1.857267e+00	0	0
1993984	2.706000e+00	-2.594420e+02	-1.979956e+00	0	0
1995938	2.706000e+00	-2.689779e+02	-1.514488e+02	0	0
1997891	2.706000e+00	-2.619424e+02	-1.828516e+02	0	0
1999844	2.706017e+00	-2.799996e+02	-1.272114e+02	0	0
2001797	2.707000e+00	-2.792350e+02	5.598260e+00	0	0
2003750	2.707000e+00	-3.085943e+02	3.013796e+00	0	0
2005703	2.707000e+00	-3.001573e+02	3.293663e+00	0	0
2007656	2.707000e+00	-2.925159e+02	1.266459e+02	0	0
2009609	2.707000e+00	-2.744828e+02	1.809024e+02	0	0
2011563	2.707000e+00	-2.804257e+02	-4.606312e+00	0	0
2013516	2.707000e+00	-2.711470e+02	-4.090141e+00	0	0
2015469	2.707000e+00	-3.055978e+02	-6.795361e+01	0	0
2017422	2.707000e+00	-3.058594e+02	-1.905247e+02	0	0
2019375	2.707000e+00	-3.027805e+02	-1.083768e+02	0	0
2021328	2.707018e+00	-2.942211e+02	-1.437120e+01	0	0
2023281	2.708000e+00	-2.918532e+02	-1.053704e+01	0	0
2025234	2.708000e+00	-2.934642e+02	-7.569181e+00	0	0
2027188	2.708000e+00	-2.829447e+02	8.637563e+01	0	0
2029141	2.708000e+00	-2.837077e+02	1.746204e+02	0	0
2031094	2.708000e+00	-2.511813e+02	6.541401e+01	0	0
2033047	2.708000e+00	-2.710000e+02	-1.744548e+00	0	0
2035000	2.708000e+00	-2.746256e+02	-5.924006e+01	0	0
2036953	2.708000e+00	-2.711396e+02	-1.756925e+02	0	0
2038906	2.708000e+00	-2.645065e+02	-1.308808e+02	0	0
2040859	2.708000e+00	-2.742034e+02	-7.930722e+01	0	0
2042813	2.708019e+00	-2.830307e+02	3.719751e+00	0	0
2044766	2.708981e+00	-2.917651e+02	1.663365e-01	0	0
2046719	2.708020e+00	-2.843951e+02	3.474762e+00	0	0
2048672	2.709000e+00	-2.906065e+02	1.813580e+02	0	0
2050625	2.709000e+00	-2.632712e+02	9.223620e+01	0	0
2052578	2.709000e+00	-2.555468e+02	2.080800e+00	0	0
2054531	2.709000e+00	-2.477248e+02	-1.886079e+01	0	0
2056484	2.709000e+00	-2.595059e+02	-1.793315e+02	0	0
2058438	2.709000e+00	-2.846325e+02	-1.439367e+02	0	0
2060391	2.709000e+00	-2.736630e+02	-8.110658e+01	0	0
2062344	2.709000e+00	-2.774246e+02	2.978466e+00	0	0
2064297	2.709000e+00	-2.507839e+02	1.985279e+00	0	0
2066250	2.709000e+00	-2.533960e+02	6.705304e+00	0	0
2068203	2.709020e+00	-2.438476e+02	1.862155e+02	0	0
2070156	2.710000e+00	-2.451986e+02	1.522278e+02	0	0
2072109	2.710000e+00	-2.574668e+02	2.542391e+00	0	0
2074063	2.710000e+00	-2.496930e+02	1.381152e+00	0	0
2076016	2.710000e+00	-2.576320e+02	-1.604754e+02	0	0
2077969	2.710000e+00	-2.556913e+02	-1.764941e+02	0	0
2079922	2.710000e+00	-2.542957e+02	-1.300058e+02	0	0
2081875	2.710000e+00	-2.576214e+02	2.007167e-01	0	0
2083828	2.710000e+00	-2.700689e+02	1.543986e+00	0	0
2085781	2.710021e+00	-2.765131e+02	2.351195e+00	0	0
2087734	2.710979e+00	-2.547381e+02	1.370421e+02	0	0
2089688	2.710000e+00	-2.595459e+02	1.790809e+02	0	0
2091641	2.710000e+00	-2.496010e+02	-3.282137e+00	0	0
2093594	2.710000e+00	-2.425844e+02	-1.336887e+00	0	0
2095547	2.710022e+00	-2.401920e+02	-9.763753e+01	0	0
2097500	2.711000e+00	-2.286844e+02	-1.839335e+02	0	0
2099453	2.711000e+00	-2.720528e+02	-9.875432e+01	0	0
2101406	2.711000e+00	-2.651672e+02	-1.431673e+01	0	0
2103359	2.711000e+00	-2.607054e+02	-6.875255e+00	0	0
2105313	2.711000e+00	-2.685524e+02	-6.244328e+00	0	0
2107266	2.711000e+00	-2.627202e+02	1.043581e+02	0	0
2109219	2.711000e+00	-2.407312e+02	1.734264e+02	0	0
2111172	2.711023e+00	-2.375208e+02	6.291283e+01	0	0
2113125	2.711977e+00	-2.284419e+02	-7.353502e+00	0	0
2115078	2.711000e+00	-2.261817e+02	-6.133131e+01	0	0
2117031	2.711000e+00	-2.312116e+02	-1.884649e+02	0	0
2118984	2.711023e+00	-2.293890e+02	-1.250697e+02	0	0
2120938	2.712000e+00	-2.421211e+02	-6.079496e+01	0	0
2122891	2.712000e+00	-2.789230e+02	-3.736496e+00	0	0
2124844	2.712000e+00	-2.937633e+02	-3.904899e+00	0	0
2126797	2.712000e+00	-2.736886e+02	1.219167e+01	0	0
2128750	2.712000e+00	-2.542935e+02	1.814609e+02	0	0
2130703	2.712000e+00	-2.502699e+02	9.740798e+01	0	0
2132656	2.712000e+00	-2.557810e+02	-1.891693e+00	0	0
2134609	2.712000e+00	-2.397876e+02	-8.830156e+00	0	0
2136563	2.712000e+00	-2.551776e+02	-1.858865e+02	0	0
2138516	2.712024e+00	-2.545294e+02	-1.450604e+02	0	0
2140469	2.712976e+00	-2.624306e+02	-7.908543e+01	0	0
2142422	2.712025e+00	-2.734759e+02	-3.430040e+00	0	0
2144375	2.713000e+00	-2.872707e+02	-3.962962e+00	0	0
2146328	2.713000e+00	-2.818640e+02	2.622585e+00	0	0
2148281	2.713000e+00	-2.848173e+02	1.831588e+02	0	0
2150234	2.713000e+00	-2.798650e+02	1.432857e+02	0	0
2152188	2.713000e+00	-2.602533e+02	1.913986e+00	0	0
2154141	2.713000e+00	-2.522993e+02	1.029628e+00	0	0
2156094	2.713000e+00	-2.740513e+02	-1.656371e+02	0	0
2158047	2.713000e+00	-2.598721e+02	-1.713806e+02	0	0
2160000	2.713000e+00	-2.675408e+02	-1.270783e+02	0	0
2161953	2.713000e+00	-2.795713e+02	8.671061e+00	0	0
2163906	2.713000e+00	-2.868511e+02	3.102485e+00	0	0
2165859	2.713000e+00	-2.930765e+02	2.149645e+00	0	0
2167813	2.713000e+00	-2.709808e+02	1.270446e+02	0	0
2169766	2.713026e+00	-2.787204e+02	1.776842e+02	0	0
2171719	2.714000e+00	-2.701683e+02	-4.388548e+00	0	0
2173672	2.713974e+00	-2.669569e+02	-1.556030e+00	0	0
2175625	2.713026e+00	-2.707045e+02	-8.229860e+01	0	0
2177578	2.714000e+00	-2.704785e+02	-1.886716e+02	0	0
2179531	2.714000e+00	-2.656609e+02	-1.089344e+02	0	0
2181484	2.714000e+00	-2.764568e+02	-8.150726e+00	0	0
2183438	2.714000e+00	-2.788528e+02	-1.050650e+01	0	0
2185391	2.714000e+00	-2.774595e+02	-7.187323e+00	0	0
2187344	2.714000e+00	-2.834885e+02	1.103568e+02	0	0
2189297	2.714000e+00	-2.888232e+02	1.716831e+02	0	0
2191250	2.714000e+00	-2.829307e+02	4.968725e+01	0	0
2193203	2.714027e+00	-2.909111e+02	-6.646270e+00	0	0
2195156	2.714972e+00	-2.808463e+02	-5.807922e+01	0	0
2197109	2.714028e+00	-2.753607e+02	-1.845987e+02	0	0
2199063	2.714972e+00	-2.657322e+02	-1.164051e+02	0	0
2201016	2.714028e+00	-2.465991e+02	-7.053252e+01	0	0
2202969	2.715000e+00	-2.038827e+02	1.690821e+00	0	0
2204922	2.715000e+00	-1.493496e+02	-6.315482e-01	0	0
2206875	2.715000e+00	-1.446471e+02	4.167465e+01	0	0
2208828	2.715000e+00	-1.489556e+02	1.798971e+02	0	0
2210781	2.715000e+00	-1.343928e+02	6.890149e+01	0	0
2212734	2.715000e+00	-1.314623e+02	-1.708021e+00	0	0
2214688	2.715000e+00	-1.196196e+02	-2.412533e+01	0	0
2216641	2.715000e+00	-1.254179e+02	-1.835090e+02	0	0
2218594	2.715029e+00	-1.153235e+02	-1.265439e+02	0	0
2220547	2.716000e+00	-1.052590e+02	-7.044933e+01	0	0
2222500	2.716000e+00	-1.022030e+02	2.815956e+00	0	0
2224453	2.716000e+00	-8.745212e+01	5.555711e-01	0	0
2226406	2.716000e+00	-1.004906e+02	6.118492e+00	0	0
2228359	2.716000e+00	-9.410874e+01	1.878113e+02	0	0
2230313	2.716000e+00	-8.575724e+01	1.426789e+02	0	0
2232266	2.716000e+00	-6.219558e+01	4.482171e-01	0	0
2234219	2.716000e+00	-5.275660e+01	-2.387003e+00	0	0
2236172	2.716000e+00	-5.270125e+01	-1.870765e+02	0	0
2238125	2.716000e+00	-5.379463e+01	-1.680843e+02	0	0
2240078	2.716000e+00	-2.370588e+01	-1.176056e+02	0	0
2242031	2.716031e+00	-2.881680e-01	5.795031e+00	0	0
2243984	2.716969e+00	-4.722002e+00	2.052599e+00	0	0
2245938	2.716031e+00	-4.612648e+00	4.839995e+00	0	0
2247891	2.717000e+00	3.803000e+00	1.567929e+02	0	0
2249844	2.717000e+00	-1.440412e+00	1.847106e+02	0	0
2251797	2.717000e+00	1.373261e+00	-5.612216e+00	0	0
2253750	2.717000e+00	-2.526591e+01	-3.322962e+00	0	0
2255703	2.717000e+00	-3.871218e+01	-9.173140e+01	0	0
2257656	2.717000e+00	-4.822608e+01	-1.993333e+02	0	0
2259609	2.717000e+00	-5.699584e+01	-9.628189e+01	0	0
2261563	2.717000e+00	-8.209307e+01	-1.265202e+01	0	0
2263516	2.717000e+00	-1.047964e+02	-1.482159e+01	0	0
2265469	2.717000e+00	-1.169619e+02	-1.017948e+01	0	0
2267422	2.717000e+00	-1.620934e+02	1.216071e+02	0	0
2269375	2.717000e+00	-1.836009e+02	1.761170e+02	0	0
2271328	2.717000e+00	-2.103024e+02	4.910213e+01	0	0
2273281	2.717033e+00	-2.175763e+02	-3.362888e+00	0	0
2275234	2.718000e+00	-2.376198e+02	-6.050238e+01	0	0
2277188	2.718000e+00	-2.501909e+02	-1.841664e+02	0	0
2279141	2.718000e+00	-2.602292e+02	-1.179725e+02	0	0
2281094	2.718000e+00	-2.682418e+02	-6.405280e+01	0	0
2283047	2.718000e+00	-2.941549e+02	-1.623069e+00	0	0
2285000	2.718000e+00	-2.989092e+02	-2.978189e+00	0	0
2286953	2.718000e+00	-3.039037e+02	4.514346e+01	0	0
2288906	2.718000e+00	-2.873068e+02	1.778862e+02	0	0
2290859	2.718000e+00	-2.656109e+02	8.184126e+01	0	0
2292813	2.718034e+00	-2.884641e+02	-3.513419e+00	0	0
2294766	2.718966e+00	-2.976992e+02	-3.742029e+01	0	0
2296719	2.718034e+00	-3.063957e+02	-1.838493e+02	0	0
2298672	2.719000e+00	-3.128085e+02	-1.395842e+02	0	0
2300625	2.719000e+00	-3.150499e+02	-8.407133e+01	0	0
2302578	2.719000e+00	-3.404904e+02	1.163920e+00	0	0
2304531	2.719000e+00	-3.561806e+02	-1.378391e+00	0	0
2306484	2.719000e+00	-3.732011e+02	5.404438e+00	0	0
2308438	2.719000e+00	-3.383171e+02	1.847694e+02	0	0
2310391	2.719000e+00	-3.458641e+02	1.309350e+02	0	0
2312344	2.719035e+00	-3.568639e+02	3.963558e+00	0	0
2314297	2.719965e+00	-3.475680e+02	3.170194e+00	0	0
2316250	2.719035e+00	-3.562985e+02	-1.754299e+02	0	0
2318203	2.720000e+00	-3.606253e+02	-1.560791e+02	0	0
2320156	2.720000e+00	-3.731753e+02	-1.196222e+02	0	0
2322109	2.720000e+00	-3.449091e+02	1.166211e+01	0	0
2324063	2.720000e+00	-3.445545e+02	5.178045e+00	0	0
2326016	2.720000e+00	-3.280238e+02	6.992179e+00	0	0
2327969	2.720000e+00	-3.267389e+02	1.499364e+02	0	0
2329922	2.720000e+00	-3.419760e+02	1.796674e+02	0	0
2331875	2.720000e+00	-3.636001e+02	-5.398960e+00	0	0
2333828	2.720000e+00	-3.674606e+02	-1.159731e+00	0	0
2335781	2.720036e+00	-3.520015e+02	-7.190659e+01	0	0
2337734	2.721000e+00	-3.889581e+02	-1.924765e+02	0	0
2339688	2.721000e+00	-3.654897e+02	-1.080456e+02	0	0
2341641	2.721000e+00	-3.622401e+02	-8.884474e+00	0	0
2343594	2.721000e+00	-3.646038e+02	-1.242042e+01	0	0
2345547	2.721000e+00	-3.372284e+02	-8.369152e+00	0	0
2347500	2.721000e+00	-3.644974e+02	1.168189e+02	0	0
2349453	2.721000e+00	-3.669802e+02	1.725862e+02	0	0
2351406	2.721000e+00	-4.056740e+02	2.788268e+01	0	0
2353359	2.721038e+00	-4.181610e+02	-2.272823e+00	0	0
2355313	2.721962e+00	-4.271670e+02	-7.716233e+01	0	0
2357266	2.721038e+00	-4.304886e+02	-1.843403e+02	0	0
2359219	2.722000e+00	-3.922025e+02	-1.172132e+02	0	0
2361172	2.722000e+00	-3.132084e+02	-6.568056e+01	0	0
2363125	2.722000e+00	-2.679859e+02	5.052441e+00	0	0
2365078	2.722000e+00	-1.663971e+02	3.761513e+00	0	0
2367031	2.722000e+00	-7.178673e+01	4.360405e+01	0	0
2368984	2.722000e+00	7.464549e+01	1.886910e+02	0	0
2370938	2.722000e+00	3.181169e+02	7.420892e+01	0	0
2372891	2.722039e+00	6.255636e+02	-2.121979e+00	0	0
2374844	2.722961e+00	8.608759e+02	-4.474363e+01	0	0
2376797	2.722000e+00	1.121520e+03	-1.883529e+02	0	0
2378750	2.722000e+00	1.383053e+03	-1.189000e+02	0	0
2380703	2.722039e+00	1.607033e+03	-6.917353e+01	0	0
2382656	2.723000e+00	1.713435e+03	-2.233661e+00	0	0
2384609	2.723000e+00	1.616387e+03	-5.174493e+00	0	0
2386563	2.723000e+00	1.448524e+03	3.319650e+00	0	0
2388516	2.723000e+00	1.075670e+03	1.830455e+02	0	0
2390469	2.723000e+00	7.994280e+02	1.241160e+02	0	0
2392422	2.723000e+00	5.520593e+02	-2.575950e+00	0	0
2394375	2.723000e+00	3.863451e+02	-5.753042e+00	0	0
2396328	2.723000e+00	1.272978e+02	-1.848019e+02	0	0
2398281	2.723040e+00	-2.317294e+02	-1.559628e+02	0	0
2400234	2.724000e+00	-4.630010e+02	-1.086332e+02	0	0
2402188	2.724000e+00	-5.278794e+02	1.772308e+00	0	0
2404141	2.724000e+00	-5.570596e+02	-3.066509e+00	0	0
2406094	2.724000e+00	-5.194099e+02	2.602040e+00	0	0
2408047	2.724000e+00	-4.746140e+02	1.600783e+02	0	0
2410000	2.724000e+00	-4.461858e+02	1.744469e+02	0	0
2411953	2.724000e+00	-3.798400e+02	-5.354710e+00	0	0
2413906	2.724000e+00	-3.581285e+02	-1.378859e+00	0	0
2415859	2.724000e+00	-3.233933e+02	-8.064416e+01	0	0
2417813	2.724000e+00	-3.193278e+02	-1.841442e+02	0	0
2419766	2.724000e+00	-2.969369e+02	-1.108156e+02	0	0
2421719	2.724042e+00	-3.011799e+02	-2.012355e-01	0	0
2423672	2.724958e+00	-2.920821e+02	-4.235944e+00	0	0
2425625	2.724042e+00	-2.931966e+02	-7.338830e-01	0	0
2427578	2.725000e+00	-2.968636e+02	1.146463e+02	0	0
2429531	2.725000e+00	-3.033913e+02	1.728321e+02	0	0
2431484	2.725000e+00	-3.082723e+02	2.302696e+01	0	0
2433438	2.725000e+00	-2.900588e+02	-4.456272e+00	0	0
2435391	2.725000e+00	-2.943206e+02	-6.623177e+01	0	0
2437344	2.725000e+00	-3.080836e+02	-1.850501e+02	0	0
2439297	2.725000e+00	-3.136877e+02	-9.651931e+01	0	0
2441250	2.725000e+00	-3.209684e+02	-4.131929e+01	0	0
2443203	2.725043e+00	-3.165841e+02	-3.657020e+00	0	0
2445156	2.726000e+00	-3.105166e+02	-3.930599e+00	0	0
2447109	2.726000e+00	-3.064781e+02	5.625650e+01	0	0
2449063	2.726000e+00	-2.996210e+02	1.798838e+02	0	0
2451016	2.726000e+00	-2.808221e+02	7.512247e+01	0	0
2452969	2.726000e+00	-2.794466e+02	-2.051708e+00	0	0
2454922	2.726000e+00	-2.748480e+02	-1.955848e+01	0	0
2456875	2.726000e+00	-2.869054e+02	-1.873036e+02	0	0
2458828	2.726000e+00	-3.041718e+02	-1.383648e+02	0	0
2460781	2.726000e+00	-2.852387e+02	-6.561982e+01	0	0
2462734	2.726044e+00	-2.945649e+02	5.677849e-01	0	0
2464688	2.727000e+00	-3.020199e+02	-3.154098e+00	0	0
2466641	2.727000e+00	-2.888960e+02	4.585646e+00	0	0
2468594	2.727000e+00	-2.698417e+02	1.826588e+02	0	0
2470547	2.727000e+00	-2.713648e+02	1.126498e+02	0	0
2472500	2.727000e+00	-2.851951e+02	-1.678345e+00	0	0
2474453	2.727000e+00	-2.691082e+02	-4.786749e+00	0	0
2476406	2.727000e+00	-2.727017e+02	-1.836739e+02	0	0
2478359	2.727000e+00	-2.640047e+02	-1.717426e+02	0	0
2480313	2.727000e+00	-2.695053e+02	-1.213393e+02	0	0
2482266	2.727046e+00	-2.536507e+02	4.736207e+00	0	0
2484219	2.728000e+00	-2.639911e+02	-1.570653e+00	0	0
2486172	2.728000e+00	-2.798165e+02	4.740766e+00	0	0
2488125	2.728000e+00	-2.679948e+02	1.754597e+02	0	0
2490078	2.728000e+00	-2.724185e+02	1.758330e+02	0	0
2492031	2.728000e+00	-2.597947e+02	-5.351413e+00	0	0
2493984	2.728000e+00	-2.580486e+02	-2.228833e+00	0	0
2495938	2.728000e+00	-2.535095e+02	-1.059278e+02	0	0
2497891	2.728000e+00	-2.537895e+02	-1.884315e+02	0	0
2499844	2.728000e+00	-2.469293e+02	-1.148335e+02	0	0
2501797	2.728000e+00	-2.570570e+02	1.343154e+00	0	0
2503750	2.728047e+00	-2.553634e+02	-2.531993e+00	0	0
2505703	2.729000e+00	-2.492402e+02	1.347500e+00	0	0
2507656	2.729000e+00	-2.415313e+02	1.113790e+02	0	0
2509609	2.729000e+00	-2.357275e+02	1.847394e+02	0	0
2511563	2.729000e+00	-2.259214e+02	2.601742e+01	0	0
2513516	2.729000e+00	-2.156351e+02	-2.874470e+00	0	0
2515469	2.729000e+00	-2.072303e+02	-8.201919e+01	0	0
2517422	2.729000e+00	-2.155227e+02	-1.920424e+02	0	0
2519375	2.729000e+00	-2.168145e+02	-1.001101e+02	0	0
2521328	2.729048e+00	-2.119062e+02	-4.019621e+01	0	0
2523281	2.730000e+00	-2.119358e+02	-1.330755e+00	0	0
2525234	2.730000e+00	-2.031402e+02	-1.145494e+00	0	0
2527188	2.730000e+00	-2.008555e+02	6.707296e+01	0	0
2529141	2.730000e+00	-2.081482e+02	1.876285e+02	0	0
2531094	2.730000e+00	-1.923079e+02	8.526839e+01	0	0
2533047	2.730000e+00	-1.744528e+02	-2.213402e+00	0	0
2535000	2.730000e+00	-1.669468e+02	-3.331946e+01	0	0
2536953	2.730049e+00	-1.612434e+02	-1.914621e+02	0	0
2538906	2.730951e+00	-1.582113e+02	-1.276553e+02	0	0
2540859	2.730049e+00	-1.555439e+02	-6.665781e+01	0	0
2542813	2.731000e+00	-1.632074e+02	1.023381e+00	0	0
2544766	2.731000e+00	-1.580612e+02	-3.438046e+00	0	0
2546719	2.731000e+00	-1.616299e+02	5.708722e+00	0	0
2548672	2.731000e+00	-1.497176e+02	1.900260e+02	0	0
2550625	2.731000e+00	-1.274513e+02	1.079034e+02	0	0
2552578	2.731000e+00	-1.145323e+02	-1.868284e+00	0	0
2554531	2.731000e+00	-1.333760e+02	-7.204825e+00	0	0
2556484	2.731000e+00	-1.239517e+02	-1.936000e+02	0	0
2558438	2.731000e+00	-1.122433e+02	-1.579345e+02	0	0
2560391	2.731000e+00	-1.062676e+02	-1.068737e+02	0	0
2562344	2.731051e+00	-9.548803e+01	2.279142e+00	0	0
2564297	2.732000e+00	-1.010768e+02	-3.535157e+00	0	0
2566250	2.732000e+00	-1.028983e+02	4.839762e+00	0	0
2568203	2.732000e+00	-8.611117e+01	1.871103e+02	0	0
2570156	2.732000e+00	-7.415437e+01	1.808896e+02	0	0
2572109	2.732000e+00	-6.102934e+01	-5.883552e+00	0	0
2574063	2.732000e+00	-4.769299e+01	-2.165434e+00	0	0
2576016	2.732000e+00	-3.890515e+01	-1.037870e+02	0	0
2577969	2.732000e+00	-3.404809e+01	-1.928650e+02	0	0
2579922	2.732000e+00	-1.622608e+01	-1.203526e+02	0	0
2581875	2.732000e+00	-7.432936e+00	2.106217e+00	0	0
2583828	2.732000e+00	-6.073990e+00	-2.568201e+00	0	0
2585781	2.732000e+00	1.768620e+01	1.091651e+00	0	0
2587734	2.732052e+00	2.037794e+01	1.024888e+02	0	0
2589688	2.733000e+00	2.907036e+01	1.847354e+02	0	0
2591641	2.733000e+00	4.666800e+01	-1.724323e+00	0	0
2593594	2.733000e+00	5.856589e+01	-1.888698e+00	0	0
2595547	2.733000e+00	6.983379e+01	-9.983379e+01	0	0
2597500	2.733000e+00	8.876135e+01	-1.908556e+02	0	0
2599453	2.733000e+00	9.573774e+01	-1.071937e+02	0	0
2601406	2.733000e+00	1.195167e+02	-3.814918e+01	0	0
2603359	2.733000e+00	1.141531e+02	-7.516700e-01	0	0
2605313	2.733000e+00	1.103426e+02	1.498352e-01	0	0
2607266	2.733054e+00	1.206793e+02	8.314547e+01	0	0
2609219	2.733946e+00	1.319185e+02	1.856935e+02	0	0
2611172	2.733054e+00	1.674635e+02	7.832173e+01	0	0
2613125	2.734000e+00	1.824336e+02	-2.202033e+00	0	0
2615078	2.734000e+00	1.942560e+02	-3.412471e+01	0	0
2617031	2.734000e+00	2.143184e+02	-1.898505e+02	0	0
2618984	2.734000e+00	1.804835e+02	-1.378198e+02	0	0
2620938	2.734000e+00	1.887437e+02	-6.300036e+01	0	0
2622891	2.734000e+00	1.987199e+02	9.317229e-01	0	0
2624844	2.734000e+00	1.955978e+02	-3.519834e+00	0	0
2626797	2.734000e+00	2.136496e+02	5.950937e+00	0	0
2628750	2.734000e+00	2.192230e+02	1.863833e+02	0	0
2630703	2.734000e+00	2.478722e+02	1.241943e+02	0	0
2632656	2.734000e+00	2.410239e+02	-2.714508e+00	0	0
2634609	2.734000e+00	2.469867e+02	-7.551641e+00	0	0
2636563	2.734056e+00	2.497755e+02	-1.876582e+02	0	0
2638516	2.735000e+00	2.387270e+02	-1.463757e+02	0	0
2640469	2.735000e+00	2.445694e+02	-1.037887e+02	0	0
2642422	2.735000e+00	2.314595e+02	2.549186e+00	0	0
2644375	2.735000e+00	2.218033e+02	-3.868738e+00	0	0
2646328	2.735000e+00	2.121409e+02	5.658526e+00	0	0
2648281	2.735000e+00	1.915605e+02	1.882505e+02	0	0
2650234	2.735000e+00	1.681407e+02	1.668539e+02	0	0
2652188	2.735000e+00	1.515978e+02	-5.716814e+00	0	0
2654141	2.735000e+00	1.442639e+02	-2.865509e+00	0	0
2656094	2.735000e+00	1.104883e+02	-1.091594e+02	0	0
2658047	2.735000e+00	9.267403e+01	-1.859777e+02	0	0
2660000	2.735057e+00	8.152838e+01	-1.275100e+02	0	0
2661953	2.736000e+00	4.900329e+01	-5.296608e+00	0	0
2663906	2.736000e+00	2.029591e+01	-2.600119e+00	0	0
2665859	2.736000e+00	-8.438230e+00	1.596231e+00	0	0
2667813	2.736000e+00	-3.854322e+01	1.101099e+02	0	0
2669766	2.736000e+00	-6.530253e+01	1.791777e+02	0	0
2671719	2.736000e+00	-8.402396e+01	-7.375119e+00	0	0
2673672	2.736000e+00	-9.930128e+01	-1.577182e+00	0	0
2675625	2.736000e+00	-1.208863e+02	-9.355763e+01	0	0
2677578	2.736000e+00	-1.204594e+02	-1.861261e+02	0	0
2679531	2.736000e+00	-1.612698e+02	-9.230267e+01	0	0
2681484	2.736000e+00	-1.618739e+02	-1.978485e+01	0	0
2683438	2.736000e+00	-1.775347e+02	-1.825789e+00	0	0
2685391	2.736059e+00	-1.996268e+02	2.321124e-01	0	0
2687344	2.736941e+00	-2.021844e+02	9.623975e+01	0	0
2689297	2.736059e+00	-2.140062e+02	1.773798e+02	0	0
2691250	2.736941e+00	-2.084638e+02	7.380019e+01	0	0
2693203	2.736059e+00	-2.084802e+02	-3.882711e+00	0	0
2695156	2.737000e+00	-1.993225e+02	-4.610367e+01	0	0
2697109	2.737000e+00	-2.231616e+02	-1.845164e+02	0	0
2699063	2.737000e+00	-2.289202e+02	-1.332688e+02	0	0
2701016	2.737000e+00	-2.391366e+02	-7.134238e+01	0	0
2702969	2.737000e+00	-2.352723e+02	1.429605e+00	0	0
2704922	2.737000e+00	-2.464487e+02	-4.005057e+00	0	0
2706875	2.737000e+00	-2.571828e+02	8.091929e+00	0	0
2708828	2.737000e+00	-2.600378e+02	1.845361e+02	0	0
2710781	2.737000e+00	-2.431264e+02	9.266277e+01	0	0
2712734	2.737000e+00	-2.485704e+02	-1.574103e+00	0	0
2714688	2.737061e+00	-2.383559e+02	-8.777181e+00	0	0
2716641	2.738000e+00	-2.339552e+02	-1.900428e+02	0	0
2718594	2.738000e+00	-2.422670e+02	-1.484581e+02	0	0
2720547	2.738000e+00	-2.473959e+02	-9.778341e+01	0	0
2722500	2.738000e+00	-2.416108e+02	3.035392e+00	0	0
2724453	2.738000e+00	-2.352664e+02	-3.449528e+00	0	0
2726406	2.738000e+00	-2.522622e+02	7.433495e+00	0	0
2728359	2.738000e+00	-2.541385e+02	1.925983e+02	0	0
2730313	2.738000e+00	-2.714144e+02	1.564912e+02	0	0
2732266	2.738000e+00	-2.516776e+02	-4.783710e+00	0	0
2734219	2.738000e+00	-2.262614e+02	-4.948383e+00	0	0
2736172	2.738000e+00	-2.283022e+02	-1.414311e+02	0	0
2738125	2.738000e+00	-2.448510e+02	-1.893939e+02	0	0
2740078	2.738000e+00	-2.636721e+02	-1.305606e+02	0	0
2742031	2.738062e+00	-2.766667e+02	3.122295e+00	0	0
2743984	2.739000e+00	-2.770489e+02	-3.290905e+00	0	0
2745938	2.739000e+00	-2.757820e+02	2.081972e+00	0	0
2747891	2.738937e+00	-2.568536e+02	1.110511e+02	0	0
2749844	2.738063e+00	-2.602651e+02	1.831395e+02	0	0
2751797	2.739000e+00	-2.610288e+02	-8.092010e+00	0	0
2753750	2.739000e+00	-2.648953e+02	-2.200091e+00	0	0
2755703	2.739000e+00	-2.815219e+02	-1.041642e+02	0	0
2757656	2.739000e+00	-2.718785e+02	-1.911006e+02	0	0
2759609	2.739000e+00	-2.757554e+02	-9.149939e+01	0	0
2761563	2.739000e+00	-2.694143e+02	-1.804405e+01	0	0
2763516	2.739000e+00	-2.300473e+02	-4.695015e+00	0	0
2765469	2.739000e+00	-2.573951e+02	-2.494128e+00	0	0
2767422	2.739000e+00	-2.437987e+02	8.868806e+01	0	0
2769375	2.739000e+00	-2.303607e+02	1.811388e+02	0	0
2771328	2.739064e+00	-2.391644e+02	6.656951e+01	0	0
2773281	2.739936e+00	-2.426065e+02	-1.707738e+00	0	0
2775234	2.739000e+00	-2.539914e+02	-2.826021e+01	0	0
2777188	2.739000e+00	-2.603174e+02	-1.879016e+02	0	0
2779141	2.739065e+00	-2.606597e+02	-1.228147e+02	0	0
2781094	2.740000e+00	-2.522971e+02	-7.397218e+01	0	0
2783047	2.740000e+00	-2.809454e+02	1.559280e+00	0	0
2785000	2.740000e+00	-2.626652e+02	-3.926466e+00	0	0
2786953	2.740000e+00	-2.525529e+02	1.814312e+01	0	0
2788906	2.740000e+00	-2.388703e+02	1.839247e+02	0	0
2790859	2.740000e+00	-2.338678e+02	9.427905e+01	0	0
2792813	2.740000e+00	-2.188200e+02	-1.847541e+00	0	0
2794766	2.740000e+00	-2.141474e+02	-9.410522e+00	0	0
2796719	2.740000e+00	-2.081860e+02	-1.885201e+02	0	0
2798672	2.740000e+00	-2.096632e+02	-1.454345e+02	0	0
2800625	2.740000e+00	-2.212856e+02	-9.074058e+01	0	0
2802578	2.740000e+00	-2.352341e+02	2.447895e+00	0	0
2804531	2.740000e+00	-2.371963e+02	-4.464465e+00	0	0
2806484	2.740066e+00	-2.239635e+02	7.319399e+00	0	0
2808438	2.741000e+00	-2.394980e+02	1.888437e+02	0	0
2810391	2.741000e+00	-2.357751e+02	1.365500e+02	0	0
2812344	2.741000e+00	-2.250018e+02	-4.250332e+00	0	0
2814297	2.741000e+00	-2.231441e+02	-5.233398e+00	0	0
2816250	2.741000e+00	-2.158495e+02	-1.569435e+02	0	0
2818203	2.741000e+00	-2.245007e+02	-1.807139e+02	0	0
2820156	2.741000e+00	-2.339234e+02	-1.241126e+02	0	0
2822109	2.741000e+00	-2.317665e+02	1.103866e+01	0	0
2824063	2.741000e+00	-2.276881e+02	4.168354e+00	0	0
2826016	2.741000e+00	-2.257340e+02	1.062096e+01	0	0
2827969	2.741000e+00	-2.116779e+02	1.298040e+02	0	0
2829922	2.741000e+00	-2.049756e+02	1.842313e+02	0	0
2831875	2.741000e+00	-2.072456e+02	-3.850863e+00	0	0
2833828	2.741000e+00	-2.053810e+02	-1.451586e+00	0	0
2835781	2.741068e+00	-2.184287e+02	-1.014797e+02	0	0
2837734	2.741932e+00	-2.246949e+02	-1.870872e+02	0	0
2839688	2.741000e+00	-2.069176e+02	-1.033275e+02	0	0
2841641	2.741069e+00	-2.022820e+02	-1.413950e+01	0	0
2843594	2.742000e+00	-2.268229e+02	-6.928699e+00	0	0
2845547	2.742000e+00	-2.332794e+02	-3.419429e+00	0	0
2847500	2.742000e+00	-2.410347e+02	1.081510e+02	0	0
2849453	2.742000e+00	-2.372880e+02	1.731394e+02	0	0
2851406	2.742000e+00	-2.043119e+02	7.565313e+01	0	0
2853359	2.742000e+00	-1.968857e+02	-4.397187e+00	0	0
2855313	2.742000e+00	-2.181917e+02	-5.291931e+01	0	0
2857266	2.742000e+00	-2.045009e+02	-1.858422e+02	0	0
2859219	2.742000e+00	-2.104088e+02	-1.151625e+02	0	0
2861172	2.742000e+00	-2.131816e+02	-6.064442e+01	0	0
2863125	2.742000e+00	-2.127536e+02	5.128589e+00	0	0
2865078	2.742000e+00	-2.040490e+02	-8.816562e-01	0	0
2867031	2.742000e+00	-2.234216e+02	1.329777e+01	0	0
2868984	2.742000e+00	-2.086786e+02	1.902264e+02	0	0
2870938	2.742000e+00	-1.840669e+02	9.793077e+01	0	0
2872891	2.742000e+00	-1.741913e+02	-2.998441e+00	0	0
2874844	2.742000e+00	-1.909085e+02	-3.197388e+01	0	0
2876797	2.742071e+00	-2.139891e+02	-1.926501e+02	0	0
2878750	2.742929e+00	-2.199754e+02	-1.323626e+02	0	0
2880703	2.742071e+00	-2.216500e+02	-8.121960e+01	0	0
2882656	2.743000e+00	-2.114935e+02	2.536436e+00	0	0
2884609	2.743000e+00	-2.074367e+02	-3.114596e+00	0	0
2886563	2.743000e+00	-2.140340e+02	1.026864e+01	0	0
2888516	2.743000e+00	-1.992130e+02	1.935466e+02	0	0
2890469	2.743000e+00	-1.951011e+02	1.370161e+02	0	0
2892422	2.743000e+00	-2.100965e+02	-3.405144e+00	0	0
2894375	2.743000e+00	-1.903001e+02	-7.242153e+00	0	0
2896328	2.743000e+00	-1.977985e+02	-1.667785e+02	0	0
2898281	2.743000e+00	-1.877520e+02	-1.814094e+02	0	0
2900234	2.743000e+00	-2.229999e+02	-1.166514e+02	0	0
2902188	2.743000e+00	-2.090278e+02	6.948508e+00	0	0
2904141	2.743000e+00	-2.241648e+02	-2.126293e+00	0	0
2906094	2.743000e+00	-2.239173e+02	4.187053e+00	0	0
2908047	2.743000e+00	-2.056945e+02	1.389485e+02	0	0
2910000	2.743000e+00	-2.122706e+02	1.765297e+02	0	0
2911953	2.743000e+00	-1.839786e+02	-7.090460e+00	0	0
2913906	2.743000e+00	-1.671429e+02	-2.222044e+00	0	0
2915859	2.743000e+00	-1.831218e+02	-9.405090e+01	0	0
2917813	2.743074e+00	-1.914755e+02	-1.935243e+02	0	0
2919766	2.744000e+00	-1.743620e+02	-1.112469e+02	0	0
2921719	2.744000e+00	-1.970917e+02	-1.160687e+01	0	0
2923672	2.744000e+00	-1.983298e+02	-9.941491e+00	0	0
2925625	2.744000e+00	-1.670946e+02	-2.131039e+00	0	0
2927578	2.744000e+00	-9.837813e+01	1.110934e+02	0	0
2929531	2.744000e+00	-6.837212e+01	1.739026e+02	0	0
2931484	2.744000e+00	-5.697028e+01	4.425633e+01	0	0
2933438	2.744000e+00	-3.926784e+01	-6.170711e+00	0	0
2935391	2.744000e+00	-3.987631e+01	-7.257169e+01	0	0
2937344	2.744000e+00	-3.919705e+01	-1.837611e+02	0	0
2939297	2.744000e+00	-5.569176e+01	-1.247096e+02	0	0
2941250	2.744000e+00	-2.000359e+01	-6.496197e+01	0	0
2943203	2.744000e+00	-2.042276e+01	5.915308e+00	0	0
2945156	2.744000e+00	-3.301064e+01	-9.606004e-01	0	0
2947109	2.744075e+00	9.502483e+00	2.105092e+01	0	0
2949063	2.744924e+00	2.393719e+01	1.868451e+02	0	0
2951016	2.744000e+00	3.939991e+01	9.021817e+01	0	0
2952969	2.744000e+00	5.413806e+01	-2.041034e+00	0	0
2954922	2.744076e+00	6.575184e+01	-1.914341e+01	0	0
2956875	2.745000e+00	5.985491e+01	-1.935743e+02	0	0
2958828	2.745000e+00	4.301683e+01	-1.393283e+02	0	0
2960781	2.745000e+00	4.929382e+01	-9.404485e+01	0	0
2962734	2.745000e+00	5.887848e+01	-3.045726e+00	0	0
2964688	2.745000e+00	8.251898e+01	-9.038249e+00	0	0
2966641	2.745000e+00	7.219843e+01	7.866721e+00	0	0
2968594	2.745000e+00	9.403913e+01	1.894437e+02	0	0
2970547	2.745000e+00	8.858374e+01	1.250446e+02	0	0
2972500	2.745000e+00	7.173534e+01	-3.737251e-01	0	0
2974453	2.745000e+00	1.037432e+02	-5.770351e+00	0	0
2976406	2.745000e+00	1.009977e+02	-1.719287e+02	0	0
2978359	2.745000e+00	7.549370e+01	-1.724118e+02	0	0
2980313	2.745000e+00	7.828701e+01	-1.235166e+02	0	0
2982266	2.745000e+00	8.033700e+01	1.262383e+01	0	0
2984219	2.745078e+00	3.909185e+01	3.149768e+00	0	0
2986172	2.745922e+00	3.634667e+01	7.575835e+00	0	0
2988125	2.745000e+00	1.289832e+01	1.352588e+02	0	0
2990078	2.745078e+00	-1.767732e+01	1.761506e+02	0	0
2992031	2.746000e+00	-2.631432e+01	-9.433631e+00	0	0
2993984	2.746000e+00	-6.950442e+01	-3.112653e+00	0	0
2995938	2.746000e+00	-6.559117e+01	-1.035387e+02	0	0
2997891	2.746000e+00	-9.472305e+01	-1.970293e+02	0	0
2999844	2.746000e+00	-1.177863e+02	-9.098263e+01	0	0
3001797	2.746000e+00	-1.051489e+02	-8.467948e+00	0	0
3003750	2.746000e+00	-1.675381e+02	-1.377275e+01	0	0
3005703	2.746000e+00	-1.615262e+02	-5.739911e+00	0	0
3007656	2.746000e+00	-1.762121e+02	1.184771e+02	0	0
3009609	2.746000e+00	-2.014808e+02	1.759254e+02	0	0
3011563	2.746000e+00	-1.812373e+02	5.445884e+01	0	0
3013516	2.746000e+00	-1.740898e+02	-8.216220e+00	0	0
3015469	2.746000e+00	-1.921914e+02	-7.076146e+01	0	0
3017422	2.746080e+00	-1.699103e+02	-1.947676e+02	0	0
3019375	2.746920e+00	-1.886124e+02	-1.192534e+02	0	0
3021328	2.746000e+00	-1.832856e+02	-5.318063e+01	0	0
3023281	2.746080e+00	-1.901731e+02	3.538872e+00	0	0
3025234	2.747000e+00	-1.868166e+02	4.567274e-01	0	0
3027188	2.747000e+00	-2.166114e+02	3.423073e+01	0	0
3029141	2.747000e+00	-2.334468e+02	1.933535e+02	0	0
3031094	2.747000e+00	-2.206002e+02	7.956610e+01	0	0
3033047	2.747000e+00	-1.951615e+02	-2.276378e+00	0	0
3035000	2.747000e+00	-1.788646e+02	-2.537931e+01	0	0
3036953	2.747000e+00	-2.165655e+02	-1.969254e+02	0	0
3038906	2.747000e+00	-2.224852e+02	-1.455523e+02	0	0
3040859	2.747000e+00	-2.062931e+02	-7.700648e+01	0	0
3042813	2.747000e+00	-1.987448e+02	5.494153e-01	0	0
3044766	2.747000e+00	-2.276152e+02	-6.555477e+00	0	0
3046719	2.747000e+00	-1.969658e+02	9.783173e+00	0	0
3048672	2.747000e+00	-1.993238e+02	1.951503e+02	0	0
3050625	2.747000e+00	-1.810827e+02	1.340329e+02	0	0
3052578	2.747000e+00	-2.002599e+02	-5.929841e-01	0	0
3054531	2.747000e+00	-2.001454e+02	-5.782701e+00	0	0
3056484	2.747082e+00	-2.096345e+02	-1.724629e+02	0	0
3058438	2.748000e+00	-1.995986e+02	-1.810900e+02	0	0
3060391	2.748000e+00	-1.810924e+02	-1.245277e+02	0	0
3062344	2.748000e+00	-2.093254e+02	1.106552e+01	0	0
3064297	2.748000e+00	-2.285905e+02	-4.239404e-01	0	0
3066250	2.748000e+00	-2.137398e+02	6.633056e+00	0	0
3068203	2.748000e+00	-2.028245e+02	1.424462e+02	0	0
3070156	2.748000e+00	-1.875888e+02	1.785989e+02	0	0
3072109	2.748000e+00	-2.014742e+02	-1.008747e+01	0	0
3074063	2.748000e+00	-2.150085e+02	-2.453687e+00	0	0
3076016	2.748000e+00	-2.557542e+02	-9.759638e+01	0	0
3077969	2.748000e+00	-2.893237e+02	-1.980393e+02	0	0
3079922	2.748000e+00	-2.711758e+02	-9.909638e+01	0	0
3081875	2.748000e+00	-2.711131e+02	-5.425127e+00	0	0
3083828	2.748000e+00	-2.233529e+02	-1.030999e+01	0	0
3085781	2.748084e+00	-1.371329e+02	-2.147863e+00	0	0
3087734	2.749000e+00	-2.877700e+01	1.070225e+02	0	0
3089688	2.749000e+00	4.891799e+01	1.757386e+02	0	0
3091641	2.749000e+00	1.665586e+02	3.272645e+01	0	0
3093594	2.749000e+00	3.797396e+02	-8.091695e+00	0	0
3095547	2.749000e+00	6.292078e+02	-6.972582e+01	0	0
3097500	2.749000e+00	9.002550e+02	-1.922135e+02	0	0
3099453	2.749000e+00	1.151477e+03	-1.218367e+02	0	0
3101406	2.749000e+00	1.427271e+03	-5.520108e+01	0	0
3103359	2.749000e+00	1.703526e+03	6.258400e-01	0	0
3105313	2.749000e+00	1.845364e+03	-2.698501e+00	0	0
3107266	2.749000e+00	1.843836e+03	4.660671e+01	0	0
3109219	2.749000e+00	1.741571e+03	1.864490e+02	0	0
3111172	2.749000e+00	1.438098e+03	8.139609e+01	0	0
3113125	2.749000e+00	1.074106e+03	-3.608338e+00	0	0
3115078	2.749086e+00	9.057719e+02	-3.866173e+01	0	0
3117031	2.750000e+00	6.806523e+02	-1.930781e+02	0	0
3118984	2.750000e+00	4.753492e+02	-1.330759e+02	0	0
3120938	2.750000e+00	1.334547e+02	-6.284573e+01	0	0
3122891	2.750000e+00	-2.635558e+02	2.628163e+00	0	0
3124844	2.750000e+00	-3.813879e+02	-4.404026e+00	0	0
3126797	2.750000e+00	-3.830328e+02	1.176405e+01	0	0
3128750	2.750000e+00	-3.372856e+02	1.953915e+02	0	0
3130703	2.750000e+00	-3.130842e+02	1.319087e+02	0	0
3132656	2.750000e+00	-2.388350e+02	1.119995e+00	0	0
3134609	2.750000e+00	-1.869815e+02	-7.296402e+00	0	0
3136563	2.750000e+00	-1.560175e+02	-1.930575e+02	0	0
3138516	2.750000e+00	-1.144687e+02	-1.597160e+02	0	0
3140469	2.750000e+00	-9.554731e+01	-1.208233e+02	0	0
3142422	2.750088e+00	-9.736880e+01	1.144318e+01	0	0
3144375	2.751000e+00	-1.234602e+02	9.904239e-01	0	0
3146328	2.751000e+00	-1.229259e+02	9.746940e+00	0	0
3148281	2.751000e+00	-1.273114e+02	1.480357e+02	0	0
3150234	2.751000e+00	-1.224524e+02	1.836619e+02	0	0
3152188	2.751000e+00	-1.215420e+02	-1.077106e+01	0	0
3154141	2.751000e+00	-1.057066e+02	-2.983384e+00	0	0
3156094	2.751000e+00	-1.057130e+02	-1.054017e+02	0	0
3158047	2.751000e+00	-9.928828e+01	-1.993235e+02	0	0
3160000	2.751000e+00	-7.427103e+01	-9.238395e+01	0	0
3161953	2.751000e+00	-9.913071e+01	-2.593633e+00	0	0
3163906	2.751000e+00	-1.040394e+02	-8.593642e+00	0	0
3165859	2.751000e+00	-9.558510e+01	-6.627173e-01	0	0
3167813	2.751000e+00	-1.254923e+02	1.108961e+02	0	0
3169766	2.751000e+00	-1.247924e+02	1.800303e+02	0	0
3171719	2.751090e+00	-1.143776e+02	3.877051e+01	0	0
3173672	2.752000e+00	-1.121997e+02	-8.414557e+00	0	0
3175625	2.752000e+00	-7.596022e+01	-7.956012e+01	0	0
3177578	2.752000e+00	-8.432330e+01	-1.942289e+02	0	0
3179531	2.752000e+00	-8.175052e+01	-1.161553e+02	0	0
3181484	2.752000e+00	-7.351612e+01	-5.199433e+01	0	0
3183438	2.752000e+00	-8.924847e+01	5.155480e-02	0	0
3185391	2.752000e+00	-8.468346e+01	-1.884705e+00	0	0
3187344	2.752000e+00	-6.984958e+01	6.175182e+01	0	0
3189297	2.752091e+00	-7.808200e+01	1.869334e+02	0	0
3191250	2.752909e+00	-8.265345e+01	7.969478e+01	0	0
3193203	2.752000e+00	-7.152144e+01	-2.547668e+00	0	0
3195156	2.752091e+00	-6.632399e+01	-2.523769e+01	0	0
3197109	2.753000e+00	-4.641403e+01	-1.931704e+02	0	0
3199063	2.753000e+00	-7.891047e+01	-1.339828e+02	0	0
3201016	2.753000e+00	-6.700311e+01	-6.471390e+01	0	0
3202969	2.753000e+00	-7.705965e+01	5.464307e+00	0	0
3204922	2.753000e+00	-5.034609e+01	-2.516162e+00	0	0
3206875	2.753000e+00	-4.835777e+01	1.402854e+01	0	0
3208828	2.753000e+00	-4.694580e+01	1.962687e+02	0	0
3210781	2.753000e+00	-3.636595e+01	1.323074e+02	0	0
3212734	2.753000e+00	-3.346579e+01	-3.201868e+00	0	0
3214688	2.753000e+00	-1.768834e+01	-1.287876e+01	0	0
3216641	2.753093e+00	-3.563562e+01	-1.975074e+02	0	0
3218594	2.754000e+00	-3.748147e+01	-1.595697e+02	0	0
3220547	2.754000e+00	-4.662500e+01	-1.072511e+02	0	0
3222500	2.754000e+00	-2.743174e+01	5.051417e+00	0	0
3224453	2.754000e+00	-4.331753e+01	-6.273127e+00	0	0
3226406	2.754000e+00	-1.958293e+01	8.485847e+00	0	0
3228359	2.754000e+00	-1.525107e+01	1.815404e+02	0	0
3230313	2.754000e+00	-1.584492e+01	1.739731e+02	0	0
3232266	2.754000e+00	-1.755076e+01	-1.239271e+01	0	0
3234219	2.754000e+00	2.117501e+00	-5.327516e+00	0	0
3236172	2.754095e+00	1.933231e+01	-9.765023e+01	0	0
3238125	2.754905e+00	1.629780e+01	-2.003431e+02	0	0
3240078	2.754095e+00	8.210742e+00	-1.070372e+02	0	0
3242031	2.755000e+00	1.649504e+01	-3.930898e+00	0	0
3243984	2.755000e+00	4.409162e+01	-1.034840e+01	0	0
3245938	2.755000e+00	3.871529e+01	1.526868e+00	0	0
3247891	2.755000e+00	1.916211e+01	1.360441e+02	0	0
3249844	2.755000e+00	4.258577e+01	1.740207e+02	0	0
3251797	2.755000e+00	3.307923e+01	2.495605e+01	0	0
3253750	2.755000e+00	3.011712e+01	-5.331566e+00	0	0
3255703	2.755000e+00	4.903353e+01	-7.629376e+01	0	0
3257656	2.755000e+00	2.672009e+01	-1.900830e+02	0	0
3259609	2.755000e+00	2.089330e+01	-1.080929e+02	0	0
3261563	2.755097e+00	3.007045e+01	-3.764410e+01	0	0
3263516	2.755903e+00	5.533616e+01	-8.842723e-01	0	0
3265469	2.755097e+00	5.947815e+01	-2.715626e+00	0	0
3267422	2.756000e+00	6.430793e+01	5.727984e+01	0	0
3269375	2.756000e+00	5.201184e+01	1.831553e+02	0	0
3271328	2.756000e+00	8.548906e+01	6.297373e+01	0	0
3273281	2.756000e+00	1.010368e+02	-5.064522e+00	0	0
3275234	2.756000e+00	1.075300e+02	-6.028592e+01	0	0
3277188	2.756000e+00	1.204651e+02	-1.903623e+02	0	0
3279141	2.756000e+00	1.125290e+02	-1.300387e+02	0	0
3281094	2.756000e+00	1.139708e+02	-7.823273e+01	0	0
3283047	2.756000e+00	9.647034e+01	6.070307e+00	0	0
3285000	2.756098e+00	1.356636e+02	-3.336991e+00	0	0
3286953	2.757000e+00	1.482980e+02	1.547437e+01	0	0
3288906	2.757000e+00	1.519646e+02	1.990591e+02	0	0
3290859	2.757000e+00	1.631394e+02	1.288388e+02	0	0
3292813	2.757000e+00	1.626419e+02	-1.281554e+00	0	0
3294766	2.757000e+00	1.759120e+02	-1.219552e+01	0	0
3296719	2.757000e+00	1.928139e+02	-1.999247e+02	0	0
3298672	2.757000e+00	2.078336e+02	-1.589585e+02	0	0
3300625	2.757000e+00	1.972997e+02	-1.024891e+02	0	0
3302578	2.757000e+00	2.112618e+02	3.179516e+00	0	0
3304531	2.757000e+00	2.252480e+02	-7.267225e+00	0	0
3306484	2.757000e+00	2.517092e+02	8.509234e+00	0	0
3308438	2.757000e+00	2.779519e+02	1.828046e+02	0	0
3310391	2.757000e+00	2.585753e+02	1.753918e+02	0	0
3312344	2.757000e+00	2.808859e+02	-1.270765e+01	0	0
3314297	2.757000e+00	2.938149e+02	-6.178227e+00	0	0
3316250	2.757101e+00	2.872839e+02	-1.062116e+02	0	0
3318203	2.758000e+00	2.918501e+02	-1.987315e+02	0	0
3320156	2.758000e+00	3.091995e+02	-9.958813e+01	0	0
3322109	2.758000e+00	3.345419e+02	-2.272178e+00	0	0
3324063	2.758000e+00	3.457900e+02	-9.252792e+00	0	0
3326016	2.758000e+00	3.500343e+02	2.340011e+00	0	0
3327969	2.758000e+00	3.577859e+02	1.281637e+02	0	0
3329922	2.758000e+00	3.816217e+02	1.720483e+02	0	0
3331875	2.758000e+00	3.916434e+02	2.132970e+01	0	0
3333828	2.758102e+00	4.125847e+02	-5.149341e+00	0	0
3335781	2.759000e+00	4.251390e+02	-8.245925e+01	0	0
3337734	2.759000e+00	4.445885e+02	-1.837455e+02	0	0
3339688	2.759000e+00	4.286587e+02	-1.071664e+02	0	0
3341641	2.759000e+00	4.461549e+02	-3.678663e+01	0	0
3343594	2.759000e+00	4.632658e+02	-2.253878e+00	0	0
3345547	2.759000e+00	4.623801e+02	-7.957711e-01	0	0
3347500	2.759000e+00	4.612968e+02	7.790780e+01	0	0
3349453	2.759000e+00	4.727315e+02	1.790166e+02	0	0
3351406	2.759000e+00	5.150267e+02	8.323747e+01	0	0
3353359	2.759000e+00	5.167727e+02	-5.217841e+00	0	0
3355313	2.759000e+00	5.222518e+02	-3.753614e+01	0	0
3357266	2.759000e+00	5.105247e+02	-1.919384e+02	0	0
3359219	2.759104e+00	4.761742e+02	-1.272209e+02	0	0
3361172	2.760000e+00	5.051705e+02	-5.630998e+01	0	0
3363125	2.760000e+00	5.062473e+02	1.448438e+00	0	0
3365078	2.760000e+00	4.943195e+02	-6.048427e+00	0	0
3367031	2.760000e+00	4.981477e+02	1.692632e+01	0	0
3368984	2.760000e+00	4.890264e+02	1.882499e+02	0	0
3370938	2.760000e+00	4.664987e+02	1.146802e+02	0	0
3372891	2.760000e+00	4.446346e+02	-4.727709e+00	0	0
3374844	2.760000e+00	4.562579e+02	-1.556268e+01	0	0
3376797	2.760000e+00	4.070661e+02	-1.955299e+02	0	0
3378750	2.760000e+00	3.697195e+02	-1.661165e+02	0	0
3380703	2.760000e+00	3.397773e+02	-1.190923e+02	0	0
3382656	2.760105e+00	3.243945e+02	7.428696e+00	0	0
3384609	2.761000e+00	2.830951e+02	-7.084754e+00	0	0
3386563	2.761000e+00	2.586676e+02	1.154886e+01	0	0
3388516	2.761000e+00	2.529390e+02	1.985603e+02	0	0
3390469	2.761000e+00	2.364239e+02	1.699556e+02	0	0
3392422	2.761000e+00	2.183793e+02	-1.114748e+01	0	0
3394375	2.761000e+00	2.007686e+02	-3.782743e+00	0	0
3396328	2.761000e+00	1.803285e+02	-1.020137e+02	0	0
3398281	2.761000e+00	1.611541e+02	-1.957589e+02	0	0
3400234	2.761000e+00	1.450967e+02	-9.853540e+01	0	0
3402188	2.761000e+00	1.185339e+02	1.273117e+00	0	0
3404141	2.761000e+00	8.381705e+01	-7.067396e+00	0	0
3406094	2.761000e+00	7.567865e+01	5.159322e+00	0	0
3408047	2.761107e+00	7.137903e+01	1.435817e+02	0	0
3410000	2.762000e+00	3.404326e+01	1.736410e+02	0	0
3411953	2.762000e+00	4.619320e+01	1.239876e+01	0	0
3413906	2.762000e+00	4.201788e+01	-5.158271e+00	0	0
3415859	2.762000e+00	6.292189e+01	-9.910251e+01	0	0
3417813	2.762000e+00	4.191654e+01	-1.881530e+02	0	0
3419766	2.762000e+00	3.747179e+01	-9.784406e+01	0	0
3421719	2.762000e+00	3.123972e+01	-4.180516e+01	0	0
3423672	2.762000e+00	1.147891e+01	-8.415563e-01	0	0
3425625	2.762000e+00	9.889540e+00	-6.073711e-01	0	0
3427578	2.762109e+00	-4.155910e+00	7.888724e+01	0	0
3429531	2.762891e+00	9.587235e+00	1.848927e+02	0	0
3431484	2.762109e+00	2.702416e+01	6.752057e+01	0	0
3433438	2.763000e+00	3.816522e+01	-3.482743e+00	0	0
3435391	2.763000e+00	3.717082e+01	-4.477637e+01	0	0
3437344	2.763000e+00	3.405703e+01	-1.959174e+02	0	0
3439297	2.763000e+00	4.822295e+01	-1.341766e+02	0	0
3441250	2.763000e+00	3.784670e+01	-7.933111e+01	0	0
3443203	2.763000e+00	2.005995e+01	5.967547e+00	0	0
3445156	2.763000e+00	1.837053e+01	-4.908251e+00	0	0
3447109	2.763110e+00	-4.698239e+00	1.765879e+01	0	0
3449063	2.763889e+00	-4.001354e+00	2.008487e+02	0	0
3451016	2.763000e+00	2.130497e+01	1.068555e+02	0	0
3452969	2.763111e+00	2.821786e+01	3.479784e-01	0	0
3454922	2.764000e+00	3.408111e+01	-1.609933e+01	0	0
3456875	2.764000e+00	3.303082e+01	-1.999076e+02	0	0
3458828	2.764000e+00	2.584222e+01	-1.534747e+02	0	0
3460781	2.764000e+00	1.065771e+01	-1.126673e+02	0	0
3462734	2.764000e+00	9.083859e+00	7.504177e+00	0	0
3464688	2.764000e+00	3.058952e+01	-7.186619e+00	0	0
3466641	2.764000e+00	5.932944e+00	1.383950e+01	0	0
3468594	2.764000e+00	2.945010e+01	2.065506e+02	0	0
3470547	2.764000e+00	2.605947e+01	1.611433e+02	0	0
3472500	2.764000e+00	3.806565e+01	-9.887805e+00	0	0
3474453	2.764112e+00	3.678865e+01	-6.840971e+00	0	0
3476406	2.765000e+00	5.322082e+01	-1.295113e+02	0	0
3478359	2.765000e+00	4.164160e+01	-1.966119e+02	0	0
3480313	2.765000e+00	2.125218e+01	-1.010875e+02	0	0
3482266	2.765000e+00	2.218855e+01	3.327357e+00	0	0
3484219	2.765000e+00	1.016768e+01	-5.699099e+00	0	0
3486172	2.765000e+00	2.660970e+01	3.172680e+00	0	0
3488125	2.765000e+00	3.263238e+01	1.222910e+02	0	0
3490078	2.765000e+00	2.980179e+01	1.813052e+02	0	0
3492031	2.765000e+00	3.379333e+01	1.925963e+01	0	0
3493984	2.765000e+00	3.582895e+01	-7.851116e+00	0	0
3495938	2.765000e+00	3.001348e+01	-8.696773e+01	0	0
3497891	2.765114e+00	2.559612e+01	-2.001576e+02	0	0
3499844	2.766000e+00	3.871040e+01	-1.007433e+02	0	0
3501797	2.766000e+00	4.896351e+01	-3.125235e+01	0	0
3503750	2.766000e+00	1.423315e+01	-3.867684e+00	0	0
3505703	2.766000e+00	3.413953e+01	8.469356e-01	0	0
3507656	2.766000e+00	4.749744e+01	9.731980e+01	0	0
3509609	2.766000e+00	5.914123e+01	1.807422e+02	0	0
3511563	2.766000e+00	6.313056e+01	5.524130e+01	0	0
3513516	2.766000e+00	4.977952e+01	-5.407768e+00	0	0
3515469	2.766000e+00	5.025992e+01	-6.612617e+01	0	0
3517422	2.766000e+00	3.706293e+01	-1.932997e+02	0	0
3519375	2.766116e+00	5.554876e+01	-1.406871e+02	0	0
3521328	2.767000e+00	5.241575e+01	-5.918875e+01	0	0
3523281	2.767000e+00	4.585633e+01	3.370145e+00	0	0
3525234	2.767000e+00	6.624568e+01	-5.277104e+00	0	0
3527188	2.767000e+00	4.453855e+01	1.768870e+01	0	0
3529141	2.767000e+00	4.894391e+01	1.927872e+02	0	0
3531094	2.767000e+00	6.902317e+01	8.943267e+01	0	0
3533047	2.767000e+00	1.009531e+02	-1.899251e+00	0	0
3535000	2.767000e+00	8.009834e+01	-1.814437e+01	0	0
3536953	2.767000e+00	8.183190e+01	-1.966264e+02	0	0
3538906	2.767000e+00	8.677309e+01	-1.407463e+02	0	0
3540859	2.767117e+00	8.361954e+01	-9.434165e+01	0	0
3542813	2.768000e+00	7.370252e+01	4.568167e+00	0	0
3544766	2.768000e+00	6.491116e+01	-7.818440e+00	0	0
3546719	2.768000e+00	8.271450e+01	1.315956e+01	0	0
3548672	2.768000e+00	7.969638e+01	1.964740e+02	0	0
3550625	2.768000e+00	6.976899e+01	1.620881e+02	0	0
3552578	2.768000e+00	7.337101e+01	-1.054528e+01	0	0
3554531	2.768000e+00	7.641727e+01	-7.573177e+00	0	0
3556484	2.768118e+00	6.937578e+01	-1.297666e+02	0	0
3558438	2.768881e+00	6.796141e+01	-1.856144e+02	0	0
3560391	2.768119e+00	7.360948e+01	-9.887358e+01	0	0
3562344	2.769000e+00	8.867495e+01	3.725057e+00	0	0
3564297	2.769000e+00	8.254660e+01	-6.154455e+00	0	0
3566250	2.769000e+00	8.033169e+01	7.236887e+00	0	0
3568203	2.769000e+00	7.336528e+01	1.457709e+02	0	0
3570156	2.769000e+00	8.920951e+01	1.723595e+02	0	0
3572109	2.769000e+00	1.001136e+02	-6.506500e+00	0	0
3574063	2.769000e+00	8.699395e+01	-4.916717e+00	0	0
3576016	2.769120e+00	8.050218e+01	-1.039217e+02	0	0
3577969	2.770000e+00	7.912268e+01	-1.956138e+02	0	0
3579922	2.770000e+00	6.895689e+01	-1.030851e+02	0	0
3581875	2.770000e+00	6.259456e+01	-8.352429e+00	0	0
3583828	2.770000e+00	7.001726e+01	-4.139909e+00	0	0
3585781	2.770000e+00	6.843432e+01	1.264971e+00	0	0
3587734	2.770000e+00	6.468156e+01	9.114949e+01	0	0
3589688	2.770000e+00	6.320822e+01	1.876350e+02	0	0
3591641	2.770000e+00	8.848708e+01	6.200225e+01	0	0
3593594	2.770000e+00	9.471689e+01	-5.574217e+00	0	0
3595547	2.770121e+00	1.016766e+02	-6.546246e+01	0	0
3597500	2.771000e+00	8.528575e+01	-1.985840e+02	0	0
3599453	2.771000e+00	9.023866e+01	-1.381701e+02	0	0
3601406	2.771000e+00	9.384838e+01	-6.859437e+01	0	0
3603359	2.771000e+00	6.787681e+01	2.765245e+00	0	0
3605313	2.771000e+00	6.581110e+01	-7.658985e+00	0	0
3607266	2.771000e+00	4.645787e+01	2.036818e+01	0	0
3609219	2.771000e+00	5.027120e+01	1.897070e+02	0	0
3611172	2.771123e+00	6.866987e+01	8.557880e+01	0	0
3613125	2.771877e+00	7.975625e+01	-1.930929e+00	0	0
3615078	2.771000e+00	6.229183e+01	-2.289980e+01	0	0
3617031	2.771000e+00	7.807422e+01	-1.918987e+02	0	0
3618984	2.771123e+00	8.988029e+01	-1.415860e+02	0	0
3620938	2.772000e+00	8.319807e+01	-9.514337e+01	0	0
3622891	2.772000e+00	7.456881e+01	7.095345e+00	0	0
3624844	2.772000e+00	7.347271e+01	-6.252060e+00	0	0
3626797	2.772000e+00	6.246443e+01	1.391567e+01	0	0
3628750	2.772000e+00	6.982213e+01	1.947047e+02	0	0
3630703	2.772124e+00	7.491597e+01	1.567506e+02	0	0
3632656	2.773000e+00	8.889604e+01	-8.908931e+00	0	0
3634609	2.773000e+00	9.604127e+01	-9.217252e+00	0	0
3636563	2.773000e+00	1.084674e+02	-1.547945e+02	0	0
3638516	2.773000e+00	1.049880e+02	-1.860737e+02	0	0
3640469	2.773000e+00	8.668682e+01	-1.080748e+02	0	0
3642422	2.773000e+00	8.487404e+01	1.142153e+01	0	0
3644375	2.773000e+00	7.690544e+01	1.864100e+00	0	0
3646328	2.773125e+00	7.447071e+01	1.224317e+01	0	0
3648281	2.774000e+00	8.573541e+01	1.308549e+02	0	0
3650234	2.774000e+00	9.281099e+01	1.808844e+02	0	0
3652188	2.774000e+00	8.641609e+01	-1.458768e+01	0	0
3654141	2.774000e+00	9.624517e+01	-3.545841e+00	0	0
3656094	2.774000e+00	8.740381e+01	-1.083378e+02	0	0
3658047	2.774000e+00	6.736167e+01	-1.981719e+02	0	0
3660000	2.774000e+00	7.461274e+01	-7.655856e+01	0	0
3661953	2.774000e+00	9.532194e+01	-7.511603e+00	0	0
3663906	2.774126e+00	8.329464e+01	-1.241854e+01	0	0
3665859	2.775000e+00	9.282328e+01	-2.630670e+00	0	0
3667813	2.775000e+00	1.188929e+02	1.092896e+02	0	0
3669766	2.775000e+00	1.285056e+02	1.831014e+02	0	0
3671719	2.775000e+00	1.381860e+02	6.625840e+01	0	0
3673672	2.775000e+00	1.492814e+02	-5.341602e+00	0	0
3675625	2.775000e+00	2.052883e+02	-5.442945e+01	0	0
3677578	2.775000e+00	2.232369e+02	-1.963327e+02	0	0
3679531	2.775000e+00	2.428924e+02	-1.212667e+02	0	0
3681484	2.775127e+00	2.446194e+02	-6.676383e+01	0	0
3683438	2.776000e+00	2.364663e+02	3.113212e+00	0	0
3685391	2.776000e+00	2.264577e+02	-5.082393e+00	0	0
3687344	2.776000e+00	2.144140e+02	3.467220e+01	0	0
3689297	2.776000e+00	2.556597e+02	1.899015e+02	0	0
3691250	2.776000e+00	2.570454e+02	7.483545e+01	0	0
3693203	2.776000e+00	2.878468e+02	-2.004218e+00	0	0
3695156	2.776129e+00	3.063081e+02	-2.246551e+01	0	0
3697109	2.777000e+00	3.302440e+02	-1.979322e+02	0	0
3699063	2.777000e+00	3.340792e+02	-1.415274e+02	0	0
3701016	2.777000e+00	3.249091e+02	-8.067194e+01	0	0
3702969	2.777000e+00	3.258998e+02	1.188847e+00	0	0
3704922	2.777000e+00	3.210877e+02	-1.117111e+01	0	0
3706875	2.777000e+00	2.961540e+02	1.025872e+01	0	0
3708828	2.777000e+00	3.038322e+02	1.916959e+02	0	0
3710781	2.777000e+00	3.452110e+02	1.515941e+02	0	0
3712734	2.777000e+00	3.569722e+02	-1.244132e+01	0	0
3714688	2.777000e+00	3.569117e+02	-1.366309e+01	0	0
3716641	2.777000e+00	3.597291e+02	-1.538722e+02	0	0
3718594	2.777131e+00	3.533908e+02	-1.858533e+02	0	0
3720547	2.778000e+00	3.587958e+02	-1.075460e+02	0	0
3722500	2.778000e+00	3.611467e+02	3.419313e+00	0	0
3724453	2.778000e+00	3.278113e+02	-6.403995e+00	0	0
3726406	2.778000e+00	2.884878e+02	9.099817e+00	0	0
3728359	2.778000e+00	3.166368e+02	1.449466e+02	0	0
3730313	2.778000e+00	3.341233e+02	1.683105e+02	0	0
3732266	2.778000e+00	3.336972e+02	-6.817148e+00	0	0
3734219	2.778000e+00	3.230624e+02	-3.826967e+00	0	0
3736172	2.778000e+00	2.972215e+02	-9.608088e+01	0	0
3738125	2.778000e+00	2.742885e+02	-1.895873e+02	0	0
3740078	2.778132e+00	2.411730e+02	-9.235099e+01	0	0
3742031	2.779000e+00	2.079801e+02	-9.632936e+00	0	0
3743984	2.779000e+00	1.833037e+02	-8.662665e+00	0	0
3745938	2.779000e+00	1.562024e+02	3.407002e+00	0	0
3747891	2.779000e+00	1.406589e+02	1.201293e+02	0	0
3749844	2.779000e+00	1.554063e+02	1.714738e+02	0	0
3751797	2.779000e+00	1.414870e+02	5.275888e+01	0	0
3753750	2.779000e+00	1.316127e+02	-4.821360e+00	0	0
3755703	2.779000e+00	1.247844e+02	-5.878289e+01	0	0
3757656	2.779000e+00	1.182261e+02	-1.872333e+02	0	0
3759609	2.779133e+00	1.090522e+02	-1.285113e+02	0	0
3761563	2.780000e+00	1.167152e+02	-7.298066e+01	0	0
3763516	2.780000e+00	7.838777e+01	3.808525e+00	0	0
3765469	2.780000e+00	7.768974e+01	-6.222019e+00	0	0
3767422	2.780000e+00	8.493669e+01	3.570740e+01	0	0
3769375	2.780000e+00	8.529430e+01	1.864298e+02	0	0
3771328	2.780000e+00	7.677160e+01	7.343315e+01	0	0
3773281	2.780000e+00	7.705935e+01	1.143769e+00	0	0
3775234	2.780000e+00	9.014979e+01	-2.307464e+01	0	0
3777188	2.780000e+00	7.559691e+01	-1.931958e+02	0	0
3779141	2.780000e+00	7.207336e+01	-1.339808e+02	0	0
3781094	2.780135e+00	5.608137e+01	-7.287198e+01	0	0
3783047	2.781000e+00	6.165339e+01	9.167264e+00	0	0
3785000	2.781000e+00	6.249000e+01	-3.878164e+00	0	0
3786953	2.781000e+00	5.142430e+01	2.218439e+01	0	0
3788906	2.781000e+00	4.720404e+01	2.048296e+02	0	0
3790859	2.781000e+00	5.611921e+01	1.305329e+02	0	0
3792813	2.781000e+00	6.349336e+01	-4.548498e+00	0	0
3794766	2.781000e+00	6.679296e+01	-1.419832e+01	0	0
3796719	2.781000e+00	7.023820e+01	-1.793301e+02	0	0
3798672	2.781000e+00	6.862219e+01	-1.890188e+02	0	0
3800625	2.781137e+00	6.133467e+01	-1.042563e+02	0	0
3802578	2.782000e+00	6.797479e+01	8.865153e+00	0	0
3804531	2.782000e+00	6.376061e+01	-2.733885e+00	0	0
3806484	2.782000e+00	5.858497e+01	1.138060e+01	0	0
3808438	2.782000e+00	5.964635e+01	1.460432e+02	0	0
3810391	2.782000e+00	5.408099e+01	1.761751e+02	0	0
3812344	2.782000e+00	7.533519e+01	-1.512070e+01	0	0
3814297	2.782000e+00	7.805561e+01	-5.766522e+00	0	0
3816250	2.782000e+00	7.334612e+01	-1.120978e+02	0	0
3818203	2.782000e+00	7.622029e+01	-1.989856e+02	0	0
3820156	2.782000e+00	4.437950e+01	-9.886956e+01	0	0
3822109	2.782000e+00	1.432898e+01	-3.370827e+00	0	0
3824063	2.782000e+00	-1.333125e+01	-1.180938e+01	0	0
3826016	2.782139e+00	-1.589165e+01	2.059641e+00	0	0
3827969	2.783000e+00	1.534264e+01	1.163833e+02	0	0
3829922	2.783000e+00	4.095835e+01	1.738565e+02	0	0
3831875	2.783000e+00	1.297555e+02	3.218259e+01	0	0
3833828	2.783000e+00	1.780535e+02	-3.049406e+00	0	0
3835781	2.783000e+00	2.629317e+02	-7.108848e+01	0	0
3837734	2.783000e+00	3.717861e+02	-1.826747e+02	0	0
3839688	2.783000e+00	4.893310e+02	-1.068879e+02	0	0
3841641	2.783000e+00	7.480054e+02	-5.353943e+01	0	0
3843594	2.783140e+00	1.031754e+03	1.613502e+00	0	0
3845547	2.784000e+00	1.276445e+03	-4.960396e+00	0	0
3847500	2.784000e+00	1.529489e+03	4.486664e+01	0	0
3849453	2.784000e+00	1.789801e+03	1.886274e+02	0	0
3851406	2.784000e+00	2.009945e+03	9.740709e+01	0	0
3853359	2.784000e+00	2.064600e+03	-5.211459e+00	0	0
3855313	2.784000e+00	1.970339e+03	-2.807956e+01	0	0
3857266	2.784000e+00	1.743996e+03	-2.010108e+02	0	0
3859219	2.784000e+00	1.381494e+03	-1.427169e+02	0	0
3861172	2.784000e+00	1.166424e+03	-8.121662e+01	0	0
3863125	2.784000e+00	9.398165e+02	4.948339e-01	0	0
3865078	2.784141e+00	7.434066e+02	-1.124828e+01	0	0
3867031	2.785000e+00	4.391320e+02	1.718097e+01	0	0
3868984	2.785000e+00	6.080689e+01	1.969867e+02	0	0
3870938	2.784858e+00	-8.833183e+01	1.305707e+02	0	0
3872891	2.784142e+00	-1.042107e+02	-6.848099e+00	0	0
3874844	2.785000e+00	-5.469247e+01	-1.616930e+01	0	0
3876797	2.785000e+00	-3.232838e+01	-1.746994e+02	0	0
3878750	2.785000e+00	-9.323204e+00	-1.794893e+02	0	0
3880703	2.785000e+00	3.276399e+01	-1.041674e+02	0	0
3882656	2.785000e+00	6.968464e+01	1.414610e+01	0	0
3884609	2.785000e+00	9.159097e+01	-7.289072e-01	0	0
3886563	2.785000e+00	1.225540e+02	1.561219e+01	0	0
3888516	2.785000e+00	1.362341e+02	1.609256e+02	0	0
3890469	2.785000e+00	1.526258e+02	1.675607e+02	0	0
3892422	2.785000e+00	1.468326e+02	-1.490376e+01	0	0
3894375	2.785000e+00	1.554583e+02	-3.045582e+00	0	0
3896328	2.785144e+00	1.366200e+02	-9.732243e+01	0	0
3898281	2.786000e+00	1.365784e+02	-2.011034e+02	0	0
3900234	2.786000e+00	1.428647e+02	-9.600297e+01	0	0
3902188	2.786000e+00	1.044284e+02	-7.891778e+00	0	0
3904141	2.786000e+00	1.083289e+02	-1.599668e+01	0	0
3906094	2.786000e+00	1.246155e+02	2.227560e-01	0	0
3908047	2.786000e+00	9.882017e+01	1.223393e+02	0	0
3910000	2.786145e+00	1.387853e+02	1.691734e+02	0	0
3911953	2.786855e+00	1.681898e+02	4.027635e+01	0	0
3913906	2.786000e+00	1.683044e+02	-1.043802e+01	0	0
3915859	2.786145e+00	1.793590e+02	-8.747707e+01	0	0
3917813	2.787000e+00	1.622958e+02	-1.820901e+02	0	0
3919766	2.786854e+00	1.565039e+02	-1.104111e+02	0	0
3921719	2.786146e+00	1.360931e+02	-5.304334e+01	0	0
3923672	2.787000e+00	1.252491e+02	5.878379e+00	0	0
3925625	2.787000e+00	1.417980e+02	-4.112602e+00	0	0
3927578	2.787000e+00	1.500743e+02	4.242861e+01	0	0
3929531	2.787000e+00	1.497756e+02	1.842630e+02	0	0
3931484	2.787000e+00	1.575842e+02	7.079055e+01	0	0
3933438	2.787000e+00	1.549591e+02	-2.647048e+00	0	0
3935391	2.787000e+00	1.614459e+02	-4.821860e+01	0	0
3937344	2.787000e+00	1.541942e+02	-1.887264e+02	0	0
3939297	2.787147e+00	1.549706e+02	-1.358471e+02	0	0
3941250	2.787853e+00	1.738717e+02	-7.085978e+01	0	0
3943203	2.787147e+00	1.786583e+02	8.020720e+00	0	0
3945156	2.788000e+00	1.698672e+02	-5.054901e+00	0	0
3947109	2.788000e+00	1.981424e+02	2.346888e+01	0	0
3949063	2.788000e+00	1.535104e+02	2.005719e+02	0	0
3951016	2.788000e+00	1.806367e+02	1.311289e+02	0	0
3952969	2.788000e+00	1.947760e+02	-1.948562e+00	0	0
3954922	2.788000e+00	1.859667e+02	-1.425957e+01	0	0
3956875	2.788000e+00	1.813376e+02	-1.804653e+02	0	0
3958828	2.788000e+00	1.656397e+02	-1.795252e+02	0	0
3960781	2.788000e+00	1.851729e+02	-1.096769e+02	0	0
3962734	2.788000e+00	1.884381e+02	1.076897e+01	0	0
3964688	2.788000e+00	1.832722e+02	-4.466565e+00	0	0
3966641	2.788000e+00	1.886935e+02	1.308058e+01	0	0
3968594	2.788000e+00	1.999281e+02	1.568432e+02	0	0
3970547	2.788149e+00	2.042520e+02	1.642922e+02	0	0
3972500	2.788851e+00	2.366091e+02	-1.514686e+01	0	0
3974453	2.788149e+00	2.243779e+02	-5.424024e+00	0	0
3976406	2.789000e+00	2.290945e+02	-1.032661e+02	0	0
3978359	2.789000e+00	2.124834e+02	-1.953400e+02	0	0
3980313	2.789000e+00	2.025289e+02	-8.709140e+01	0	0
3982266	2.789000e+00	2.166433e+02	-7.714570e+00	0	0
3984219	2.789000e+00	2.141224e+02	-1.706117e+01	0	0
3986172	2.789000e+00	2.153744e+02	-9.945818e-03	0	0
3988125	2.789000e+00	2.290494e+02	1.297673e+02	0	0
3990078	2.789000e+00	2.292412e+02	1.634530e+02	0	0
3992031	2.789000e+00	2.295352e+02	3.274344e+01	0	0
3993984	2.789000e+00	2.554809e+02	-1.264384e+01	0	0
3995938	2.789000e+00	2.490334e+02	-9.189763e+01	0	0
3997891	2.789151e+00	2.537946e+02	-1.906279e+02	0	0
3999844	2.790000e+00	2.520290e+02	-1.230990e+02	0	0
4001797	2.790000e+00	2.352548e+02	-4.469658e+01	0	0
4003750	2.790000e+00	2.473303e+02	9.767085e-01	0	0
4005703	2.790000e+00	2.415912e+02	-3.466914e+00	0	0
4007656	2.790000e+00	2.627383e+02	6.029416e+01	0	0
4009609	2.790000e+00	2.708618e+02	1.849899e+02	0	0
4011563	2.790000e+00	2.864425e+02	7.319788e+01	0	0
4013516	2.790000e+00	2.758156e+02	-3.161683e+00	0	0
4015469	2.790000e+00	2.865710e+02	-4.504404e+01	0	0
4017422	2.790153e+00	3.053121e+02	-1.946971e+02	0	0
4019375	2.790847e+00	3.254325e+02	-1.423885e+02	0	0
4021328	2.790153e+00	3.384330e+02	-7.043585e+01	0	0
4023281	2.791000e+00	3.075982e+02	8.622469e+00	0	0
4025234	2.791000e+00	2.664930e+02	-5.385972e+00	0	0
4027188	2.791000e+00	3.049302e+02	2.478734e+01	0	0
4029141	2.791000e+00	3.175968e+02	2.012022e+02	0	0
4031094	2.791000e+00	3.430258e+02	1.178187e+02	0	0
4033047	2.791000e+00	3.543942e+02	-1.428966e+00	0	0
4035000	2.791000e+00	3.811931e+02	-2.013964e+01	0	0
4036953	2.791000e+00	4.038122e+02	-2.005474e+02	0	0
4038906	2.791000e+00	3.776582e+02	-1.649760e+02	0	0
4040859	2.791000e+00	4.003797e+02	-1.085656e+02	0	0
4042813	2.791155e+00	3.658767e+02	8.653816e+00	0	0
4044766	2.791845e+00	3.797707e+02	-8.990500e+00	0	0
4046719	2.791155e+00	3.968920e+02	1.390585e+01	0	0
4048672	2.791845e+00	4.233323e+02	1.737129e+02	0	0
4050625	2.791155e+00	4.342088e+02	1.669218e+02	0	0
4052578	2.792000e+00	4.524991e+02	-1.483411e+01	0	0
4054531	2.792000e+00	4.392593e+02	-6.519896e+00	0	0
4056484	2.792000e+00	4.353077e+02	-1.195057e+02	0	0
4058438	2.792000e+00	4.506112e+02	-1.958289e+02	0	0
4060391	2.792000e+00	4.671095e+02	-8.603009e+01	0	0
4062344	2.792000e+00	4.790153e+02	1.952420e+00	0	0
4064297	2.792000e+00	4.696078e+02	-6.442266e+00	0	0
4066250	2.792000e+00	4.917983e+02	6.325375e+00	0	0
4068203	2.792000e+00	5.061609e+02	1.234596e+02	0	0
4070156	2.792000e+00	5.314450e+02	1.757788e+02	0	0
4072109	2.792000e+00	5.604420e+02	1.544758e+01	0	0
4074063	2.792000e+00	5.611142e+02	-3.408178e+00	0	0
4076016	2.792000e+00	5.905101e+02	-7.957058e+01	0	0
4077969	2.792157e+00	5.746159e+02	-1.932384e+02	0	0
4079922	2.793000e+00	5.728582e+02	-1.034876e+02	0	0
4081875	2.793000e+00	5.773210e+02	-5.403455e+01	0	0
4083828	2.793000e+00	5.908967e+02	2.913615e+00	0	0
4085781	2.793000e+00	6.040518e+02	-8.767413e-01	0	0
4087734	2.793000e+00	6.044656e+02	7.497545e+01	0	0
4089688	2.793000e+00	6.255682e+02	1.875711e+02	0	0
4091641	2.793000e+00	6.359621e+02	6.958294e+01	0	0
4093594	2.793000e+00	6.669641e+02	-5.801381e+00	0	0
4095547	2.793000e+00	6.785787e+02	-5.756155e+01	0	0
4097500	2.793000e+00	6.842374e+02	-1.966733e+02	0	0
4099453	2.793000e+00	6.849910e+02	-1.198588e+02	0	0
4101406	2.793159e+00	6.966265e+02	-5.158141e+01	0	0
4103359	2.794000e+00	6.817053e+02	-2.342446e-01	0	0
4105313	2.794000e+00	6.935741e+02	-1.110766e+01	0	0
4107266	2.794000e+00	6.903622e+02	2.034970e+01	0	0
4109219	2.794000e+00	6.828711e+02	1.946022e+02	0	0
4111172	2.794000e+00	6.898281e+02	1.192541e+02	0	0
4113125	2.794000e+00	6.839719e+02	-6.210938e+00	0	0
4115078	2.794000e+00	6.773595e+02	-2.290471e+01	0	0
4117031	2.794000e+00	6.525862e+02	-1.976861e+02	0	0
4118984	2.794000e+00	6.405311e+02	-1.639574e+02	0	0
4120938	2.794000e+00	6.106033e+02	-8.922404e+01	0	0
4122891	2.794000e+00	5.919562e+02	8.269397e+00	0	0
4124844	2.794000e+00	5.608099e+02	-8.646267e+00	0	0
4126797	2.794000e+00	5.480957e+02	1.651904e+01	0	0
4128750	2.794000e+00	5.437224e+02	1.848934e+02	0	0
4130703	2.794000e+00	5.265196e+02	1.589307e+02	0	0
4132656	2.794000e+00	5.054275e+02	-1.520438e+01	0	0
4134609	2.794000e+00	4.702965e+02	-3.592388e+00	0	0
4136563	2.794000e+00	4.329473e+02	-9.654815e+01	0	0
4138516	2.794162e+00	3.955187e+02	-1.967801e+02	0	0
4140469	2.795000e+00	3.722759e+02	-9.985806e+01	0	0
4142422	2.795000e+00	3.353891e+02	2.385262e+00	0	0
4144375	2.795000e+00	3.069051e+02	-6.932887e+00	0	0
4146328	2.795000e+00	3.004821e+02	7.567960e+00	0	0
4148281	2.795000e+00	3.036177e+02	1.267972e+02	0	0
4150234	2.795000e+00	2.771841e+02	1.656066e+02	0	0
4152188	2.795000e+00	2.813803e+02	9.792065e+00	0	0
4154141	2.795000e+00	2.591829e+02	-4.119444e+00	0	0
4156094	2.795000e+00	2.483744e+02	-8.993354e+01	0	0
4158047	2.795000e+00	2.247415e+02	-1.833829e+02	0	0
4160000	2.795000e+00	2.196866e+02	-1.094513e+02	0	0
4161953	2.795000e+00	2.264301e+02	-4.923997e+01	0	0
4163906	2.795000e+00	2.017900e+02	5.485392e-01	0	0
4165859	2.795000e+00	1.998327e+02	-1.762073e+00	0	0
4167813	2.795000e+00	1.867909e+02	7.254022e+01	0	0
4169766	2.795000e+00	2.026097e+02	1.820701e+02	0	0
4171719	2.795000e+00	1.967500e+02	7.450795e+01	0	0
4173672	2.795165e+00	1.936007e+02	-5.617476e+00	0	0
4175625	2.796000e+00	1.961899e+02	-5.758438e+01	0	0
4177578	2.796000e+00	1.856064e+02	-1.935780e+02	0	0
4179531	2.796000e+00	1.707335e+02	-1.368730e+02	0	0
4181484	2.796000e+00	1.784595e+02	-6.520264e+01	0	0
4183438	2.796000e+00	1.697333e+02	5.455394e+00	0	0
4185391	2.796000e+00	1.637888e+02	-8.952752e+00	0	0
4187344	2.796000e+00	1.579356e+02	2.376471e+01	0	0
4189297	2.796000e+00	1.663170e+02	1.987267e+02	0	0
4191250	2.796000e+00	1.870812e+02	1.123305e+02	0	0
4193203	2.796000e+00	1.832546e+02	-3.964736e+00	0	0
4195156	2.796000e+00	1.856084e+02	-2.483177e+01	0	0
4197109	2.796000e+00	1.709907e+02	-2.040863e+02	0	0
4199063	2.796000e+00	1.838824e+02	-1.686705e+02	0	0
4201016	2.796000e+00	1.917191e+02	-1.158971e+02	0	0
4202969	2.796000e+00	1.661487e+02	8.676920e+00	0	0
4204922	2.796000e+00	1.532833e+02	-1.037346e+01	0	0
4206875	2.796000e+00	1.606742e+02	1.852054e+01	0	0
4208828	2.796168e+00	1.535213e+02	1.920393e+02	0	0
4210781	2.797000e+00	1.587148e+02	1.625423e+02	0	0
4212734	2.796832e+00	1.714349e+02	-1.465264e+01	0	0
4214688	2.796000e+00	1.732343e+02	-7.956517e+00	0	0
4216641	2.796168e+00	1.975110e+02	-1.222209e+02	0	0
4218594	2.797000e+00	2.006253e+02	-1.964259e+02	0	0
4220547	2.797000e+00	1.829733e+02	-1.049217e+02	0	0
4222500	2.797000e+00	1.681238e+02	6.298838e+00	0	0
4224453	2.797000e+00	1.572687e+02	-7.498298e+00	0	0
4226406	2.797000e+00	1.494440e+02	8.613283e+00	0	0
4228359	2.797000e+00	1.443455e+02	1.336416e+02	0	0
4230313	2.797000e+00	1.559976e+02	1.674563e+02	0	0
4232266	2.797000e+00	1.637640e+02	6.782829e+00	0	0
4234219	2.797000e+00	1.438983e+02	-9.685861e+00	0	0
4236172	2.797000e+00	1.612603e+02	-1.073048e+02	0	0
4238125	2.797000e+00	1.599874e+02	-1.891612e+02	0	0
4240078	2.797000e+00	1.507226e+02	-8.979653e+01	0	0
4242031	2.797000e+00	1.634161e+02	-2.882542e+01	0	0
4243984	2.797000e+00	1.393146e+02	-3.634900e+00	0	0
4245938	2.797171e+00	1.518266e+02	1.195639e-01	0	0
4247891	2.798000e+00	1.533715e+02	8.619213e+01	0	0
4249844	2.797829e+00	1.485373e+02	1.831280e+02	0	0
4251797	2.797171e+00	1.795946e+02	7.672044e+01	0	0
4253750	2.798000e+00	1.962038e+02	-4.895224e+00	0	0
4255703	2.797828e+00	1.907513e+02	-4.561614e+01	0	0
4257656	2.797172e+00	1.900551e+02	-1.984141e+02	0	0
4259609	2.798000e+00	1.776207e+02	-1.413065e+02	0	0
4261563	2.798000e+00	1.546044e+02	-6.575060e+01	0	0
4263516	2.798000e+00	1.604290e+02	4.427443e+00	0	0
4265469	2.798000e+00	1.472163e+02	-1.064210e+01	0	0
4267422	2.798000e+00	1.541468e+02	2.511750e+01	0	0
4269375	2.798000e+00	1.773729e+02	1.979155e+02	0	0
4271328	2.798000e+00	1.608135e+02	9.967418e+01	0	0
4273281	2.798000e+00	1.797588e+02	-6.152388e-01	0	0
4275234	2.798000e+00	1.832712e+02	-2.423952e+01	0	0
4277188	2.798000e+00	1.880923e+02	-1.992168e+02	0	0
4279141	2.798000e+00	1.873210e+02	-1.558303e+02	0	0
4281094	2.798000e+00	1.705070e+02	-1.083522e+02	0	0
4283047	2.798000e+00	1.741682e+02	1.194605e+01	0	0
4285000	2.798000e+00	1.685283e+02	-7.902728e+00	0	0
4286953	2.798000e+00	1.790609e+02	2.221140e+01	0	0
4288906	2.798000e+00	1.895320e+02	1.941174e+02	0	0
4290859	2.798000e+00	1.925533e+02	1.577214e+02	0	0
4292813	2.798175e+00	1.850047e+02	-1.355071e+01	0	0
4294766	2.799000e+00	1.843722e+02	-8.992266e+00	0	0
4296719	2.799000e+00	1.886745e+02	-1.259578e+02	0	0
4298672	2.799000e+00	1.888943e+02	-1.896917e+02	0	0
4300625	2.799000e+00	1.785624e+02	-9.485629e+01	0	0
4302578	2.799000e+00	1.836505e+02	9.345228e-01	0	0
4304531	2.799000e+00	1.574231e+02	-6.623481e+00	0	0
4306484	2.799000e+00	1.643930e+02	9.096782e+00	0	0
4308438	2.799000e+00	1.752889e+02	1.346072e+02	0	0
4310391	2.799000e+00	1.675735e+02	1.668062e+02	0	0
4312344	2.799000e+00	1.787074e+02	-4.093912e+00	0	0
4314297	2.799000e+00	2.059109e+02	-7.620777e+00	0	0
4316250	2.799000e+00	1.968823e+02	-1.041456e+02	0	0
4318203	2.799000e+00	1.698537e+02	-1.900272e+02	0	0
4320156	2.799000e+00	1.667256e+02	-7.782779e+01	0	0
4322109	2.799000e+00	1.438128e+02	-3.485137e+01	0	0
4324063	2.799000e+00	1.532372e+02	-2.387244e+00	0	0
4326016	2.799000e+00	1.591902e+02	2.916035e+00	0	0
4327969	2.799000e+00	1.566042e+02	9.934748e+01	0	0
4329922	2.799000e+00	1.510895e+02	1.745727e+02	0	0
4331875	2.799000e+00	1.585302e+02	4.598527e+01	0	0
4333828	2.799000e+00	1.710787e+02	-4.568223e+00	0	0
4335781	2.799000e+00	1.647491e+02	-6.213341e+01	0	0
4337734	2.799179e+00	1.583669e+02	-1.932455e+02	0	0
4339688	2.800000e+00	1.590323e+02	-1.454773e+02	0	0
4341641	2.800000e+00	1.396227e+02	-7.676797e+01	0	0
4343594	2.800000e+00	1.390332e+02	8.349845e+00	0	0
4345547	2.800000e+00	1.347526e+02	-8.908973e+00	0	0
4347500	2.800000e+00	1.492231e+02	2.777926e+01	0	0
4349453	2.800000e+00	1.524279e+02	1.946075e+02	0	0
4351406	2.800000e+00	1.610011e+02	9.402504e+01	0	0
4353359	2.800000e+00	1.735733e+02	-2.767566e+00	0	0
4355313	2.800000e+00	1.621326e+02	-2.833993e+01	0	0
4357266	2.800000e+00	1.479801e+02	-1.996776e+02	0	0
4359219	2.800000e+00	1.567231e+02	-1.448965e+02	0	0
4361172	2.800000e+00	1.521538e+02	-9.111861e+01	0	0
4363125	2.800000e+00	1.415990e+02	7.838019e+00	0	0
4365078	2.800000e+00	1.456144e+02	-1.084667e+01	0	0
4367031	2.800000e+00	1.557017e+02	2.443888e+01	0	0
4368984	2.800000e+00	1.662986e+02	2.074430e+02	0	0
4370938	2.800000e+00	1.538914e+02	1.484483e+02	0	0
4372891	2.800000e+00	1.482096e+02	-1.228687e+01	0	0
4374844	2.800000e+00	1.484998e+02	-1.165326e+01	0	0
4376797	2.800000e+00	1.541603e+02	-1.382224e+02	0	0
4378750	2.800183e+00	1.417228e+02	-1.863623e+02	0	0
4380703	2.801000e+00	1.520903e+02	-9.093428e+01	0	0
4382656	2.801000e+00	1.362856e+02	6.325854e+00	0	0
4384609	2.801000e+00	1.339942e+02	-6.702875e+00	0	0
4386563	2.801000e+00	1.334333e+02	1.046122e+01	0	0
4388516	2.801000e+00	1.359694e+02	1.339131e+02	0	0
4390469	2.801000e+00	1.446321e+02	1.672053e+02	0	0
4392422	2.801000e+00	1.463601e+02	1.085407e+01	0	0
4394375	2.801000e+00	1.544011e+02	-6.558904e+00	0	0
4396328	2.801000e+00	1.685794e+02	-1.016099e+02	0	0
4398281	2.801000e+00	1.706212e+02	-1.863775e+02	0	0
4400234	2.801000e+00	1.850678e+02	-8.821011e+01	0	0
4402188	2.801000e+00	2.183383e+02	-1.961345e+01	0	0
4404141	2.801000e+00	2.435263e+02	-1.299659e+00	0	0
4406094	2.801000e+00	2.551648e+02	4.871599e-01	0	0
4408047	2.801000e+00	2.664159e+02	8.093455e+01	0	0
4410000	2.801000e+00	2.851671e+02	1.751435e+02	0	0
4411953	2.801000e+00	2.905409e+02	4.642247e+01	0	0
4413906	2.801000e+00	2.963991e+02	-4.549189e+00	0	0
4415859	2.801000e+00	2.928505e+02	-6.474947e+01	0	0
4417813	2.801000e+00	3.060477e+02	-1.887355e+02	0	0
4419766	2.801000e+00	3.064776e+02	-1.323541e+02	0	0
4421719	2.801000e+00	3.186773e+02	-6.780016e+01	0	0
4423672	2.801187e+00	3.301738e+02	5.543907e+00	0	0
4425625	2.802000e+00	3.256500e+02	-9.829614e+00	0	0
