time	gsr	ecg	emg_trapezius	emg_corrugator	emg_zygomaticus
1016	2.239000e+00	8.310740e+01	1.669218e+00	0	0
2969	2.239000e+00	9.556624e+01	-2.678387e+00	0	0
4922	2.239000e+00	1.066095e+02	2.032822e+01	0	0
6875	2.239000e+00	1.153439e+02	3.321220e+01	0	0
8828	2.239000e+00	1.255028e+02	8.120999e+00	0	0
10781	2.239000e+00	1.340600e+02	-3.306135e-02	0	0
12734	2.239000e+00	1.404177e+02	-2.370943e-01	0	0
14688	2.239000e+00	1.475247e+02	-2.881214e+01	0	0
16641	2.239000e+00	1.548792e+02	-2.136036e+01	0	0
18594	2.239000e+00	1.731675e+02	3.442101e+00	0	0
20547	2.239000e+00	1.695663e+02	-1.311412e+00	0	0
22500	2.239000e+00	1.583950e+02	1.615380e+00	0	0
24453	2.239000e+00	1.584853e+02	-5.150140e+00	0	0
26406	2.239000e+00	1.588755e+02	2.451606e+01	0	0
28359	2.238480e+00	1.682178e+02	2.286445e+01	0	0
30313	2.238000e+00	1.583020e+02	-6.208019e+00	0	0
32266	2.238521e+00	1.386199e+02	6.306794e+00	0	0
34219	2.238479e+00	1.386270e+02	-2.448907e+01	0	0
36172	2.238000e+00	1.294060e+02	-2.276652e+01	0	0
38125	2.238000e+00	1.163643e+02	3.180918e+00	0	0
40078	2.238000e+00	1.048676e+02	-3.431238e+00	0	0
42031	2.238000e+00	7.727544e+01	-4.452864e-01	0	0
43984	2.238000e+00	4.449164e+01	-6.191211e+00	0	0
45938	2.238000e+00	2.452857e+01	1.901702e+01	0	0
47891	2.238000e+00	1.150716e+01	1.778348e+01	0	0
49844	2.238000e+00	-8.541014e+00	-6.011493e+00	0	0
51797	2.238000e+00	-1.677770e+01	4.294126e+00	0	0
53750	2.238000e+00	-3.976138e+01	-1.861157e+01	0	0
55703	2.238000e+00	-6.438206e+01	-2.637086e+01	0	0
57656	2.238000e+00	-7.373879e+01	-3.534312e+00	0	0
59609	2.238000e+00	-9.111253e+01	2.735121e-01	0	0
61563	2.238000e+00	-9.670798e+01	9.999532e-01	0	0
63516	2.238000e+00	-1.007730e+02	-4.272787e+00	0	0
65469	2.238000e+00	-9.804830e+01	2.082183e+01	0	0
67422	2.238000e+00	-9.347108e+01	1.927595e+01	0	0
69375	2.238000e+00	-1.009442e+02	-5.143779e+00	0	0
71328	2.238000e+00	-1.045858e+02	4.926994e+00	0	0
73281	2.238000e+00	-1.024369e+02	-1.945979e+01	0	0
75234	2.238000e+00	-1.170249e+02	-3.147610e+01	0	0
77188	2.238000e+00	-1.259708e+02	-6.285460e+00	0	0
79141	2.238000e+00	-1.267865e+02	1.546860e+00	0	0
81094	2.238000e+00	-1.350048e+02	1.939397e+00	0	0
83047	2.238000e+00	-1.377418e+02	-2.549281e+00	0	0
85000	2.238000e+00	-1.367801e+02	2.246845e+01	0	0
86953	2.238000e+00	-1.275477e+02	3.117947e+01	0	0
88906	2.237477e+00	-1.276292e+02	5.042806e+00	0	0
90859	2.237000e+00	-1.334261e+02	3.479155e+00	0	0
92813	2.237000e+00	-1.326207e+02	-8.006016e+00	0	0
94766	2.237000e+00	-1.345872e+02	-3.217023e+01	0	0
96719	2.237000e+00	-1.484467e+02	-3.182485e+01	0	0
98672	2.237000e+00	-1.515705e+02	-7.058175e+00	0	0
100625	2.237000e+00	-1.531914e+02	3.361739e+00	0	0
102578	2.237000e+00	-1.568756e+02	2.018314e+00	0	0
104531	2.237000e+00	-1.575934e+02	-4.988091e+00	0	0
106484	2.237000e+00	-1.560420e+02	2.589029e+01	0	0
108438	2.237000e+00	-1.499894e+02	2.394397e+01	0	0
110391	2.237000e+00	-1.445921e+02	-6.512216e+00	0	0
112344	2.237000e+00	-1.411425e+02	6.571867e+00	0	0
114297	2.237000e+00	-1.411505e+02	-2.567232e+01	0	0
116250	2.237000e+00	-1.426613e+02	-2.617172e+01	0	0
118203	2.237000e+00	-1.494625e+02	1.684045e+00	0	0
120156	2.237000e+00	-1.645590e+02	-2.318796e+00	0	0
122109	2.237000e+00	-1.667236e+02	8.248621e-01	0	0
124063	2.237000e+00	-1.608498e+02	-5.578107e+00	0	0
126016	2.237000e+00	-1.588115e+02	2.131282e+01	0	0
127969	2.237000e+00	-1.460765e+02	1.915551e+01	0	0
129922	2.237000e+00	-1.365282e+02	-7.071345e+00	0	0
131875	2.237000e+00	-1.460704e+02	3.477495e+00	0	0
133828	2.237000e+00	-1.736011e+02	-2.088096e+01	0	0
135781	2.237000e+00	-2.144708e+02	-2.957780e+01	0	0
137734	2.237000e+00	-2.300906e+02	-4.922253e+00	0	0
139688	2.237000e+00	-2.176031e+02	3.659485e-01	0	0
141641	2.237000e+00	-1.879917e+02	9.580887e-01	0	0
143594	2.237000e+00	-1.237090e+02	-4.228572e+00	0	0
145547	2.237000e+00	-3.405991e+01	2.071095e+01	0	0
147500	2.236475e+00	6.351156e+01	1.893943e+01	0	0
149453	2.236000e+00	1.617240e+02	-5.053334e+00	0	0
151406	2.236000e+00	3.027920e+02	4.799236e+00	0	0
153359	2.236000e+00	5.471162e+02	-1.892033e+01	0	0
155313	2.236000e+00	8.070890e+02	-2.959595e+01	0	0
157266	2.236000e+00	1.038479e+03	-5.637622e+00	0	0
159219	2.236000e+00	1.303056e+03	7.027028e-01	0	0
161172	2.236000e+00	1.541349e+03	1.038842e+00	0	0
163125	2.236000e+00	1.746323e+03	-3.615661e+00	0	0
165078	2.236000e+00	1.817064e+03	2.213405e+01	0	0
167031	2.236000e+00	1.756384e+03	2.471545e+01	0	0
168984	2.236000e+00	1.564185e+03	1.011588e-01	0	0
170938	2.236000e+00	1.225493e+03	3.052065e+00	0	0
172891	2.236000e+00	9.530505e+02	-6.905627e+00	0	0
174844	2.236000e+00	7.505157e+02	-3.485534e+01	0	0
176797	2.236000e+00	5.815179e+02	-2.016775e+01	0	0
178750	2.236000e+00	3.262155e+02	3.124378e+00	0	0
180703	2.236000e+00	-2.753380e+01	-3.003334e-01	0	0
182656	2.236000e+00	-2.235674e+02	-5.616059e-01	0	0
184609	2.236000e+00	-2.789727e+02	7.166093e+00	0	0
186563	2.236000e+00	-2.894668e+02	3.850491e+01	0	0
188516	2.236000e+00	-2.565274e+02	2.253459e+01	0	0
190469	2.236000e+00	-2.198191e+02	-5.733958e+00	0	0
192422	2.236000e+00	-1.864600e+02	7.350027e+00	0	0
194375	2.236000e+00	-1.576803e+02	-2.749467e+01	0	0
196328	2.236000e+00	-1.342541e+02	-2.475537e+01	0	0
198281	2.235473e+00	-1.011931e+02	4.531838e+00	0	0
200234	2.235000e+00	-7.835350e+01	-2.860938e+00	0	0
202188	2.235000e+00	-8.271792e+01	5.771952e-01	0	0
204141	2.235527e+00	-8.384414e+01	-6.438129e+00	0	0
206094	2.235473e+00	-7.358802e+01	2.390325e+01	0	0
208047	2.235000e+00	-7.483463e+01	2.166511e+01	0	0
210000	2.235000e+00	-7.161354e+01	-6.796550e+00	0	0
211953	2.235000e+00	-6.946730e+01	5.462808e+00	0	0
213906	2.235000e+00	-7.637807e+01	-2.284177e+01	0	0
215859	2.235000e+00	-8.270141e+01	-2.372389e+01	0	0
217813	2.235000e+00	-8.778772e+01	1.948376e+00	0	0
219766	2.235000e+00	-8.539197e+01	-2.575323e-01	0	0
221719	2.235000e+00	-8.355976e+01	1.834980e+00	0	0
223672	2.235000e+00	-8.408423e+01	-3.748334e+00	0	0
225625	2.235000e+00	-8.266086e+01	2.127104e+01	0	0
227578	2.235000e+00	-7.655176e+01	1.920029e+01	0	0
229531	2.235000e+00	-8.077375e+01	-4.357138e+00	0	0
231484	2.235000e+00	-7.362219e+01	4.874615e+00	0	0
233438	2.235000e+00	-6.721979e+01	-1.656571e+01	0	0
235391	2.235000e+00	-8.120916e+01	-3.131800e+01	0	0
237344	2.235000e+00	-7.696538e+01	-8.369496e+00	0	0
239297	2.235000e+00	-7.084289e+01	1.954505e+00	0	0
241250	2.235000e+00	-7.393507e+01	1.312657e+00	0	0
243203	2.235000e+00	-7.549482e+01	-1.974323e+00	0	0
245156	2.235000e+00	-7.539403e+01	1.956203e+01	0	0
247109	2.235000e+00	-6.418662e+01	2.602095e+01	0	0
249063	2.235000e+00	-5.573770e+01	3.548135e+00	0	0
251016	2.235000e+00	-5.778555e+01	4.643437e+00	0	0
252969	2.235000e+00	-5.258824e+01	-1.391282e+01	0	0
254922	2.234471e+00	-3.931057e+01	-3.521562e+01	0	0
256875	2.234000e+00	-3.695632e+01	-2.033180e+01	0	0
258828	2.234000e+00	-4.411804e+01	-2.753470e+00	0	0
260781	2.234000e+00	-4.672735e+01	1.088037e+00	0	0
262734	2.234000e+00	-4.356284e+01	-1.452152e+00	0	0
264688	2.234000e+00	-4.137989e+01	8.864078e+00	0	0
266641	2.234000e+00	-3.543053e+01	3.710482e+01	0	0
268594	2.234000e+00	-2.281182e+01	1.970981e+01	0	0
270547	2.234000e+00	-1.692176e+01	-5.450330e+00	0	0
272500	2.234000e+00	-1.196288e+01	6.173532e+00	0	0
274453	2.234000e+00	-9.817174e+00	-2.542433e+01	0	0
276406	2.234000e+00	-1.671502e+01	-3.040705e+01	0	0
278359	2.234000e+00	-1.915492e+01	-1.014846e+00	0	0
280313	2.234000e+00	-2.079508e+01	-3.955679e-01	0	0
282266	2.234000e+00	-1.809209e+01	1.446149e+00	0	0
284219	2.234000e+00	-1.550878e+01	-5.389053e+00	0	0
286172	2.234000e+00	-1.216208e+01	2.624528e+01	0	0
288125	2.234000e+00	-2.387712e+00	2.348938e+01	0	0
290078	2.234000e+00	5.355060e+00	-6.374602e+00	0	0
292031	2.234000e+00	1.614474e+01	6.290151e+00	0	0
293984	2.234000e+00	1.441471e+01	-2.456849e+01	0	0
295938	2.234000e+00	1.093365e+01	-2.467851e+01	0	0
297891	2.234000e+00	1.906290e+01	2.202152e+00	0	0
299844	2.234000e+00	1.737778e+01	-1.002491e+00	0	0
301797	2.234000e+00	1.163782e+01	1.325806e+00	0	0
303750	2.234000e+00	8.343769e+00	-4.300759e+00	0	0
305703	2.234000e+00	1.840144e+01	2.072680e+01	0	0
307656	2.233469e+00	2.458091e+01	1.843650e+01	0	0
309609	2.233000e+00	2.969268e+01	-4.859471e+00	0	0
311563	2.233531e+00	3.769495e+01	4.362828e+00	0	0
313516	2.234000e+00	4.237196e+01	-1.703213e+01	0	0
315469	2.233469e+00	4.743011e+01	-2.735850e+01	0	0
317422	2.233000e+00	4.672896e+01	-5.798576e+00	0	0
319375	2.233000e+00	3.821065e+01	8.642836e-01	0	0
321328	2.233531e+00	4.153554e+01	5.973445e-01	0	0
323281	2.233469e+00	5.156254e+01	-3.253669e+00	0	0
325234	2.233000e+00	5.258379e+01	1.660016e+01	0	0
327188	2.233000e+00	6.198710e+01	2.170532e+01	0	0
329141	2.233000e+00	7.506453e+01	9.638304e-01	0	0
331094	2.233000e+00	8.536187e+01	2.608444e+00	0	0
333047	2.233000e+00	8.552104e+01	-1.472529e+01	0	0
335000	2.233000e+00	8.653849e+01	-3.269087e+01	0	0
336953	2.233000e+00	9.298802e+01	-1.108388e+01	0	0
338906	2.233000e+00	1.020689e+02	2.049112e+00	0	0
340859	2.233000e+00	9.777705e+01	2.001726e-01	0	0
342813	2.233000e+00	1.054971e+02	-2.851242e+00	0	0
344766	2.233000e+00	1.208781e+02	1.601162e+01	0	0
346719	2.233000e+00	1.404572e+02	3.939362e+01	0	0
348672	2.233000e+00	1.489850e+02	1.527594e+01	0	0
350625	2.233000e+00	1.482476e+02	-4.319963e+00	0	0
352578	2.233000e+00	1.704590e+02	5.449031e+00	0	0
354531	2.233000e+00	1.770532e+02	-2.305844e+01	0	0
356484	2.233000e+00	1.801504e+02	-2.348111e+01	0	0
358438	2.233000e+00	1.805078e+02	1.798532e+00	0	0
360391	2.233000e+00	1.794856e+02	-1.052304e+00	0	0
362344	2.233000e+00	1.988558e+02	1.395914e+00	0	0
364297	2.233000e+00	2.123581e+02	-5.169570e+00	0	0
366250	2.233000e+00	2.196323e+02	2.430506e+01	0	0
368203	2.232467e+00	2.281542e+02	2.146709e+01	0	0
370156	2.232000e+00	2.432009e+02	-6.137884e+00	0	0
372109	2.232533e+00	2.711587e+02	5.892949e+00	0	0
374063	2.233000e+00	2.745506e+02	-2.428462e+01	0	0
376016	2.232467e+00	2.764633e+02	-2.076808e+01	0	0
377969	2.232533e+00	2.951426e+02	4.160772e+00	0	0
379922	2.232467e+00	3.004033e+02	-1.911778e+00	0	0
381875	2.232000e+00	3.136929e+02	8.602257e-01	0	0
383828	2.232000e+00	3.270516e+02	-4.466226e+00	0	0
385781	2.232000e+00	3.399535e+02	1.822117e+01	0	0
387734	2.232000e+00	3.574888e+02	1.584668e+01	0	0
389688	2.232000e+00	3.657213e+02	-4.884574e+00	0	0
391641	2.232000e+00	3.789955e+02	2.751256e+00	0	0
393594	2.232000e+00	3.912199e+02	-1.407317e+01	0	0
395547	2.232000e+00	4.005302e+02	-3.034207e+01	0	0
397500	2.232000e+00	4.039599e+02	-1.108796e+01	0	0
399453	2.232000e+00	4.100361e+02	1.187996e+00	0	0
401406	2.232000e+00	4.244619e+02	-6.207902e-01	0	0
403359	2.232000e+00	4.335586e+02	-3.236109e+00	0	0
405313	2.232000e+00	4.464144e+02	1.262990e+01	0	0
407266	2.232000e+00	4.647746e+02	2.078078e+01	0	0
409219	2.232000e+00	4.726886e+02	3.088571e+00	0	0
411172	2.232000e+00	4.870375e+02	3.168539e-01	0	0
413125	2.232000e+00	5.021930e+02	-1.037548e+01	0	0
415078	2.232000e+00	5.001803e+02	-2.756721e+01	0	0
417031	2.232000e+00	5.039615e+02	-1.147697e+01	0	0
418984	2.232000e+00	4.976711e+02	1.497080e+00	0	0
420938	2.232000e+00	4.854903e+02	-3.955677e-01	0	0
422891	2.232000e+00	4.786404e+02	-3.214253e+00	0	0
424844	2.232000e+00	4.628169e+02	1.428014e+01	0	0
426797	2.231465e+00	4.565156e+02	3.093986e+01	0	0
428750	2.231535e+00	4.485904e+02	1.009397e+01	0	0
430703	2.231465e+00	4.389856e+02	-3.792310e+00	0	0
432656	2.231535e+00	4.317562e+02	4.367776e+00	0	0
434609	2.231465e+00	3.935582e+02	-2.216813e+01	0	0
436563	2.231000e+00	3.573825e+02	-2.441776e+01	0	0
438516	2.231000e+00	3.373125e+02	-1.673821e-01	0	0
440469	2.231000e+00	3.080810e+02	-1.125565e+00	0	0
442422	2.231000e+00	2.769798e+02	1.010053e+00	0	0
444375	2.231000e+00	2.516107e+02	-5.779353e+00	0	0
446328	2.231000e+00	2.322359e+02	2.552074e+01	0	0
448281	2.231000e+00	2.087558e+02	2.228544e+01	0	0
450234	2.231000e+00	1.907806e+02	-6.729136e+00	0	0
452188	2.231000e+00	1.691026e+02	6.172588e+00	0	0
454141	2.231000e+00	1.424264e+02	-2.649788e+01	0	0
456094	2.231000e+00	1.187922e+02	-2.232941e+01	0	0
458047	2.231000e+00	8.824388e+01	4.564085e+00	0	0
460000	2.231000e+00	6.362357e+01	-1.939677e+00	0	0
461953	2.231000e+00	4.556543e+01	1.291860e+00	0	0
463906	2.231000e+00	3.164210e+01	-4.992860e+00	0	0
465859	2.231000e+00	2.101568e+01	2.248460e+01	0	0
467813	2.231000e+00	1.988453e+01	1.949318e+01	0	0
469766	2.231000e+00	1.731392e+01	-5.465867e+00	0	0
471719	2.231000e+00	4.861741e+00	4.715355e+00	0	0
473672	2.231000e+00	1.335905e+00	-1.960330e+01	0	0
475625	2.231000e+00	-1.144985e+01	-3.182378e+01	0	0
477578	2.231000e+00	-2.336197e+01	-7.133558e+00	0	0
479531	2.231000e+00	-3.481762e+01	1.019715e+00	0	0
481484	2.231000e+00	-4.363095e+01	7.537811e-01	0	0
483438	2.231000e+00	-4.403886e+01	-4.134667e+00	0	0
485391	2.231000e+00	-4.956395e+01	2.103384e+01	0	0
487344	2.231000e+00	-5.451395e+01	2.307938e+01	0	0
489297	2.230463e+00	-5.397866e+01	-1.637539e+00	0	0
491250	2.230000e+00	-5.011979e+01	4.130922e+00	0	0
493203	2.230000e+00	-5.036345e+01	-1.955079e+01	0	0
495156	2.230000e+00	-5.641440e+01	-3.200753e+01	0	0
497109	2.230000e+00	-6.455126e+01	-9.904557e+00	0	0
499063	2.230538e+00	-7.480991e+01	-7.411458e-01	0	0
501016	2.230462e+00	-7.401497e+01	1.563245e+00	0	0
502969	2.230000e+00	-7.056309e+01	-3.026412e+00	0	0
504922	2.230000e+00	-7.303055e+01	2.014337e+01	0	0
506875	2.230000e+00	-7.578160e+01	3.463659e+01	0	0
508828	2.230000e+00	-7.548503e+01	9.352771e+00	0	0
510781	2.230000e+00	-6.680770e+01	-2.422363e+00	0	0
512734	2.230000e+00	-6.813137e+01	3.779512e+00	0	0
514688	2.230000e+00	-7.275238e+01	-2.034982e+01	0	0
516641	2.230000e+00	-8.554416e+01	-3.903440e+01	0	0
518594	2.230000e+00	-8.953611e+01	-1.104544e+01	0	0
520547	2.230000e+00	-9.259819e+01	2.830959e+00	0	0
522500	2.230000e+00	-9.114490e+01	1.052672e+00	0	0
524453	2.230000e+00	-9.063935e+01	-5.281724e+00	0	0
526406	2.230000e+00	-9.545322e+01	2.654381e+01	0	0
528359	2.230000e+00	-8.244816e+01	2.300454e+01	0	0
530313	2.230000e+00	-6.792962e+01	-6.466630e+00	0	0
532266	2.230000e+00	-7.096028e+01	6.913998e+00	0	0
534219	2.230000e+00	-8.116163e+01	-2.813206e+01	0	0
536172	2.230000e+00	-8.283329e+01	-2.834812e+01	0	0
538125	2.230000e+00	-7.869866e+01	-4.549749e-01	0	0
540078	2.230000e+00	-8.237846e+01	-4.509720e+00	0	0
542031	2.230000e+00	-9.220557e+01	-4.685332e-01	0	0
543984	2.230000e+00	-8.615750e+01	-5.923883e+00	0	0
545938	2.230000e+00	-8.310952e+01	2.530989e+01	0	0
547891	2.229461e+00	-8.118352e+01	2.173353e+01	0	0
549844	2.229000e+00	-6.887962e+01	-5.814572e+00	0	0
551797	2.229000e+00	-6.568116e+01	5.341251e+00	0	0
553750	2.229000e+00	-7.577082e+01	-2.138428e+01	0	0
555703	2.229000e+00	-7.278438e+01	-3.575832e+01	0	0
557656	2.229000e+00	-7.758224e+01	-8.406936e+00	0	0
559609	2.229000e+00	-9.040800e+01	2.226262e+00	0	0
561563	2.229000e+00	-9.197421e+01	2.871631e+00	0	0
563516	2.229000e+00	-9.302402e+01	-1.624962e+00	0	0
565469	2.229000e+00	-8.348710e+01	2.592339e+01	0	0
567422	2.229000e+00	-8.104403e+01	2.249239e+01	0	0
569375	2.229000e+00	-7.705334e+01	-3.400831e+00	0	0
571328	2.229000e+00	-5.914960e+01	5.193980e+00	0	0
573281	2.229000e+00	-6.603653e+01	-1.963274e+01	0	0
575234	2.229000e+00	-7.524701e+01	-3.222003e+01	0	0
577188	2.229000e+00	-6.992035e+01	-7.427771e+00	0	0
579141	2.229000e+00	-7.090477e+01	1.236351e+00	0	0
581094	2.229000e+00	-8.277932e+01	3.186028e-01	0	0
583047	2.229000e+00	-8.156992e+01	-5.192483e+00	0	0
585000	2.229000e+00	-7.332085e+01	1.490926e+01	0	0
586953	2.229000e+00	-7.417232e+01	3.174728e+01	0	0
588906	2.229000e+00	-6.960489e+01	8.377562e+00	0	0
590859	2.229000e+00	-6.583206e+01	-3.033703e+00	0	0
592813	2.229000e+00	-6.172102e+01	4.725359e+00	0	0
594766	2.229000e+00	-7.183555e+01	-2.173210e+01	0	0
596719	2.229000e+00	-6.775037e+01	-2.977662e+01	0	0
598672	2.229000e+00	-6.726465e+01	-3.367943e+00	0	0
600625	2.229000e+00	-7.686592e+01	3.324658e+00	0	0
602578	2.229000e+00	-6.800043e+01	5.315983e+00	0	0
604531	2.229000e+00	-6.806926e+01	-1.394244e+00	0	0
606484	2.229000e+00	-6.854432e+01	2.998015e+01	0	0
608438	2.228458e+00	-5.915875e+01	2.381911e+01	0	0
610391	2.228000e+00	-4.537745e+01	-6.542537e+00	0	0
612344	2.228000e+00	-4.921399e+01	6.546830e+00	0	0
614297	2.228000e+00	-5.635991e+01	-2.624082e+01	0	0
616250	2.228000e+00	-5.563303e+01	-2.882503e+01	0	0
618203	2.228000e+00	-5.673314e+01	-1.569834e+00	0	0
620156	2.228000e+00	-6.123225e+01	-3.533145e+00	0	0
622109	2.228000e+00	-6.965531e+01	-1.798739e+00	0	0
624063	2.228000e+00	-7.193359e+01	-6.779659e+00	0	0
626016	2.228000e+00	-7.964979e+01	2.241783e+01	0	0
627969	2.228000e+00	-7.376468e+01	1.871246e+01	0	0
629922	2.228000e+00	-5.528655e+01	-7.104802e+00	0	0
631875	2.228000e+00	-5.039822e+01	3.603730e+00	0	0
633828	2.228000e+00	-5.699436e+01	-2.390280e+01	0	0
635781	2.228000e+00	-6.331995e+01	-2.202454e+01	0	0
637734	2.228000e+00	-5.788604e+01	6.124841e-01	0	0
639688	2.228000e+00	-6.464905e+01	-2.402534e+00	0	0
641641	2.228000e+00	-7.818230e+01	9.166124e-01	0	0
643594	2.228000e+00	-7.529713e+01	-4.182568e+00	0	0
645547	2.228000e+00	-7.241056e+01	2.158212e+01	0	0
647500	2.228000e+00	-7.034776e+01	1.808757e+01	0	0
649453	2.228000e+00	-6.198865e+01	-4.738422e+00	0	0
651406	2.228000e+00	-5.701481e+01	4.574677e+00	0	0
653359	2.228000e+00	-5.404004e+01	-1.811794e+01	0	0
655313	2.228000e+00	-6.020394e+01	-3.362500e+01	0	0
657266	2.228000e+00	-6.329029e+01	-9.341492e+00	0	0
659219	2.228000e+00	-6.839285e+01	1.766868e+00	0	0
661172	2.228000e+00	-8.309114e+01	7.661055e-01	0	0
663125	2.228000e+00	-8.390266e+01	-2.679999e+00	0	0
665078	2.227457e+00	-8.311978e+01	2.132840e+01	0	0
667031	2.227000e+00	-7.805012e+01	2.841921e+01	0	0
668984	2.227000e+00	-6.812715e+01	5.466780e+00	0	0
670938	2.227000e+00	-6.280751e+01	4.527240e+00	0	0
672891	2.227000e+00	-6.649336e+01	-7.080081e+00	0	0
674844	2.227000e+00	-7.411842e+01	-2.992272e+01	0	0
676797	2.227000e+00	-7.864071e+01	-3.110368e+01	0	0
678750	2.227000e+00	-7.369106e+01	-7.414009e+00	0	0
680703	2.227000e+00	-7.782794e+01	3.854250e+00	0	0
682656	2.227000e+00	-8.569723e+01	2.852646e+00	0	0
684609	2.227000e+00	-7.795599e+01	-4.369051e+00	0	0
686563	2.227000e+00	-7.901668e+01	2.895077e+01	0	0
688516	2.227000e+00	-7.797545e+01	2.410412e+01	0	0
690469	2.227000e+00	-6.491127e+01	-6.567183e+00	0	0
692422	2.227000e+00	-6.174982e+01	7.706466e+00	0	0
694375	2.227000e+00	-7.078394e+01	-3.039212e+01	0	0
696328	2.227000e+00	-7.199612e+01	-2.877783e+01	0	0
698281	2.227000e+00	-7.463670e+01	1.426357e-01	0	0
700234	2.227000e+00	-7.919147e+01	-5.163642e+00	0	0
702188	2.227000e+00	-8.282891e+01	-6.237438e-01	0	0
704141	2.227000e+00	-8.549135e+01	-7.400854e+00	0	0
706094	2.227000e+00	-8.870999e+01	2.399679e+01	0	0
708047	2.227000e+00	-8.591492e+01	1.976178e+01	0	0
710000	2.227000e+00	-7.517510e+01	-8.080038e+00	0	0
711953	2.227000e+00	-6.896006e+01	4.134572e+00	0	0
713906	2.227000e+00	-6.752150e+01	-2.206895e+01	0	0
715859	2.227000e+00	-7.535321e+01	-3.003610e+01	0	0
717813	2.227000e+00	-8.037942e+01	-3.471032e+00	0	0
719766	2.227000e+00	-8.073872e+01	2.219763e+00	0	0
721719	2.227000e+00	-9.079127e+01	2.812360e+00	0	0
723672	2.227000e+00	-8.359454e+01	-2.746435e+00	0	0
725625	2.227000e+00	-8.068432e+01	2.216686e+01	0	0
727578	2.226454e+00	-8.161206e+01	1.826754e+01	0	0
729531	2.226000e+00	-6.592900e+01	-4.393769e+00	0	0
731484	2.226000e+00	-5.972886e+01	4.621666e+00	0	0
733438	2.226000e+00	-5.404023e+01	-1.680797e+01	0	0
735391	2.226000e+00	-4.902665e+01	-3.223451e+01	0	0
737344	2.226000e+00	-3.485243e+01	-9.106007e+00	0	0
739297	2.226000e+00	-1.217628e+01	1.960974e+00	0	0
741250	2.226000e+00	9.132343e+00	-2.914256e-01	0	0
743203	2.226000e+00	1.401765e+01	-4.371177e+00	0	0
745156	2.226000e+00	2.923283e+01	1.566246e+01	0	0
747109	2.226000e+00	4.886306e+01	2.636116e+01	0	0
749063	2.226000e+00	6.149875e+01	5.085163e+00	0	0
751016	2.226000e+00	6.773624e+01	2.084356e+00	0	0
752969	2.226000e+00	6.894135e+01	-1.327667e+01	0	0
754922	2.226000e+00	7.382843e+01	-3.143270e+01	0	0
756875	2.226000e+00	8.621174e+01	-2.527367e+01	0	0
758828	2.226000e+00	9.527228e+01	-5.668479e+00	0	0
760781	2.226000e+00	1.016705e+02	3.474713e+00	0	0
762734	2.226000e+00	1.173067e+02	1.875032e+00	0	0
764688	2.226000e+00	1.244359e+02	-4.341245e+00	0	0
766641	2.226000e+00	1.385412e+02	2.437067e+01	0	0
768594	2.226000e+00	1.476961e+02	2.036934e+01	0	0
770547	2.226000e+00	1.455103e+02	-5.169675e+00	0	0
772500	2.226000e+00	1.564846e+02	6.494710e+00	0	0
774453	2.226000e+00	1.770823e+02	-2.531581e+01	0	0
776406	2.226000e+00	1.914847e+02	-2.163418e+01	0	0
778359	2.226000e+00	2.008936e+02	4.041351e+00	0	0
780313	2.226000e+00	1.929145e+02	-8.124739e-01	0	0
782266	2.226000e+00	1.812761e+02	1.992686e+00	0	0
784219	2.225452e+00	1.770954e+02	-4.165204e+00	0	0
786172	2.225548e+00	1.751060e+02	2.337803e+01	0	0
788125	2.226000e+00	1.721035e+02	1.942377e+01	0	0
790078	2.225452e+00	1.703506e+02	-4.710193e+00	0	0
792031	2.225000e+00	1.623764e+02	5.674009e+00	0	0
793984	2.225000e+00	1.539072e+02	-1.999297e+01	0	0
795938	2.225000e+00	1.535310e+02	-1.694027e+01	0	0
797891	2.225000e+00	1.484967e+02	3.458403e+00	0	0
799844	2.225000e+00	1.283942e+02	-5.379061e-01	0	0
801797	2.225000e+00	1.045404e+02	1.664263e+00	0	0
803750	2.225000e+00	8.004763e+01	-3.007789e+00	0	0
805703	2.225000e+00	5.352466e+01	1.779564e+01	0	0
807656	2.225000e+00	3.740503e+01	1.473694e+01	0	0
809609	2.225000e+00	2.150966e+01	-3.306892e+00	0	0
811563	2.225000e+00	1.187345e+01	4.024267e+00	0	0
813516	2.225000e+00	2.866191e+00	-1.390857e+01	0	0
815469	2.225000e+00	-1.442676e+01	-2.707995e+01	0	0
817422	2.225000e+00	-2.892208e+01	-7.607761e+00	0	0
819375	2.225000e+00	-4.104169e+01	1.948594e+00	0	0
821328	2.225000e+00	-5.366321e+01	1.008421e+00	0	0
823281	2.225000e+00	-5.682431e+01	-2.870467e+00	0	0
825234	2.225000e+00	-5.745880e+01	1.805958e+01	0	0
827188	2.225000e+00	-7.534151e+01	1.684305e+01	0	0
829141	2.225000e+00	-7.230575e+01	-2.196015e+00	0	0
831094	2.225000e+00	-6.496011e+01	4.017913e+00	0	0
833047	2.225000e+00	-6.956424e+01	-1.551464e+01	0	0
835000	2.225000e+00	-7.059436e+01	-3.465181e+01	0	0
836953	2.225000e+00	-8.298676e+01	-1.724922e+01	0	0
838906	2.225000e+00	-8.737843e+01	-8.999127e-01	0	0
840859	2.225000e+00	-8.685965e+01	1.097206e+00	0	0
842813	2.225000e+00	-9.275813e+01	-1.228501e+00	0	0
844766	2.225000e+00	-1.033631e+02	1.042986e+01	0	0
846719	2.224450e+00	-1.065592e+02	3.668891e+01	0	0
848672	2.224000e+00	-1.044962e+02	1.780808e+01	0	0
850625	2.224000e+00	-1.005628e+02	-4.566927e+00	0	0
852578	2.224000e+00	-1.007995e+02	6.509970e+00	0	0
854531	2.224000e+00	-1.022209e+02	-2.534679e+01	0	0
856484	2.224000e+00	-9.863276e+01	-2.296040e+01	0	0
858438	2.224000e+00	-1.020051e+02	3.141818e+00	0	0
860391	2.224000e+00	-1.118779e+02	-7.853963e-01	0	0
862344	2.224000e+00	-1.178888e+02	2.031020e+00	0	0
864297	2.224000e+00	-1.114807e+02	-5.045849e+00	0	0
866250	2.224000e+00	-1.048376e+02	2.709667e+01	0	0
868203	2.224000e+00	-1.022857e+02	2.220001e+01	0	0
870156	2.224000e+00	-9.930193e+01	-5.738704e+00	0	0
872109	2.224000e+00	-9.982563e+01	6.357361e+00	0	0
874063	2.224000e+00	-1.023543e+02	-2.458479e+01	0	0
876016	2.224000e+00	-1.092680e+02	-3.229085e+01	0	0
877969	2.224000e+00	-1.133053e+02	-3.853777e+00	0	0
879922	2.224000e+00	-1.196808e+02	5.931260e-01	0	0
881875	2.224000e+00	-1.264765e+02	1.399200e+00	0	0
883828	2.224000e+00	-1.179572e+02	-4.863819e+00	0	0
885781	2.224000e+00	-1.170681e+02	2.571434e+01	0	0
887734	2.224000e+00	-1.080527e+02	2.095412e+01	0	0
889688	2.224000e+00	-9.414962e+01	-5.457115e+00	0	0
891641	2.224000e+00	-1.134942e+02	5.222758e+00	0	0
893594	2.224000e+00	-1.481827e+02	-2.073853e+01	0	0
895547	2.224000e+00	-1.788172e+02	-3.612910e+01	0	0
897500	2.224000e+00	-1.871432e+02	-9.331609e+00	0	0
899453	2.224000e+00	-1.787379e+02	1.690914e+00	0	0
901406	2.224000e+00	-1.366430e+02	4.670071e-01	0	0
903359	2.224000e+00	-7.283522e+01	-3.474825e+00	0	0
905313	2.223448e+00	2.509100e+01	1.885822e+01	0	0
907266	2.223000e+00	1.225819e+02	2.963923e+01	0	0
909219	2.223000e+00	2.150957e+02	5.517286e+00	0	0
911172	2.223000e+00	3.803283e+02	9.317578e-01	0	0
913125	2.223000e+00	6.423110e+02	-1.167020e+01	0	0
915078	2.223000e+00	8.932681e+02	-3.416671e+01	0	0
917031	2.223000e+00	1.128195e+03	-1.522827e+01	0	0
918984	2.223000e+00	1.400323e+03	1.990421e+00	0	0
920938	2.223000e+00	1.629495e+03	-1.275896e-01	0	0
922891	2.223000e+00	1.818540e+03	-1.629656e+00	0	0
924844	2.223000e+00	1.830903e+03	1.057632e+01	0	0
926797	2.223000e+00	1.728314e+03	3.690842e+01	0	0
928750	2.223000e+00	1.511056e+03	1.706871e+01	0	0
930703	2.223000e+00	1.177554e+03	-5.861657e+00	0	0
932656	2.223000e+00	9.354073e+02	4.638204e+00	0	0
934609	2.223000e+00	7.485554e+02	-2.460846e+01	0	0
936563	2.223000e+00	5.717946e+02	-3.411755e+01	0	0
938516	2.223000e+00	2.944296e+02	-5.424280e+00	0	0
940469	2.223000e+00	-3.001590e+01	6.267467e-01	0	0
942422	2.223000e+00	-1.850523e+02	1.288543e+00	0	0
944375	2.223000e+00	-2.396442e+02	-3.594509e+00	0	0
946328	2.223000e+00	-2.417191e+02	3.196542e+01	0	0
948281	2.223000e+00	-1.999401e+02	2.737190e+01	0	0
950234	2.223000e+00	-1.722936e+02	-3.148302e+00	0	0
952188	2.223000e+00	-1.346771e+02	7.067724e+00	0	0
954141	2.223000e+00	-9.196533e+01	-2.632797e+01	0	0
956094	2.223000e+00	-6.047862e+01	-2.018229e+01	0	0
958047	2.223000e+00	-4.950018e+01	3.784191e+00	0	0
960000	2.223000e+00	-3.902683e+01	-4.902836e+00	0	0
961953	2.223000e+00	-3.506688e+01	-3.813645e+00	0	0
963906	2.223000e+00	-3.741645e+01	-8.979634e+00	0	0
965859	2.222446e+00	-3.488073e+01	1.704598e+01	0	0
967813	2.222555e+00	-3.577620e+01	1.529095e+01	0	0
969766	2.222445e+00	-3.895181e+01	-4.363573e+00	0	0
971719	2.222000e+00	-3.704853e+01	3.766008e+00	0	0
973672	2.222000e+00	-3.581661e+01	-1.584403e+01	0	0
975625	2.222000e+00	-4.823338e+01	-2.404527e+01	0	0
977578	2.222000e+00	-5.386913e+01	-3.438802e+00	0	0
979531	2.222000e+00	-5.485601e+01	3.820702e+00	0	0
981484	2.222000e+00	-5.512187e+01	4.438365e+00	0	0
983438	2.222000e+00	-6.084587e+01	2.966199e-01	0	0
985391	2.222000e+00	-5.929700e+01	2.164921e+01	0	0
987344	2.222000e+00	-4.999167e+01	1.689395e+01	0	0
989297	2.222000e+00	-4.162671e+01	-3.015832e+00	0	0
991250	2.222000e+00	-2.784871e+01	4.086762e+00	0	0
993203	2.222000e+00	-2.404910e+01	-1.676540e+01	0	0
995156	2.222000e+00	-3.914203e+01	-3.492549e+01	0	0
997109	2.222000e+00	-4.035038e+01	-1.132832e+01	0	0
999063	2.222000e+00	-3.937102e+01	2.093362e+00	0	0
1001016	2.222000e+00	-3.699013e+01	4.570355e-01	0	0
1002969	2.222000e+00	-3.450593e+01	-3.921485e+00	0	0
1004922	2.222000e+00	-4.135428e+01	2.164323e+01	0	0
1006875	2.222000e+00	-3.565094e+01	3.658431e+01	0	0
1008828	2.222000e+00	-3.727804e+01	8.683830e+00	0	0
1010781	2.222000e+00	-2.589863e+01	-4.278978e+00	0	0
1012734	2.222000e+00	-1.453956e+01	5.258469e+00	0	0
1014688	2.222000e+00	-1.856341e+01	-2.629851e+01	0	0
1016641	2.222000e+00	-7.013522e+00	-2.900964e+01	0	0
1018594	2.222000e+00	-1.256730e+01	-7.830893e-01	0	0
1020547	2.222000e+00	-2.069818e+01	-4.214541e-01	0	0
1022500	2.222000e+00	-1.423476e+01	1.519199e+00	0	0
1024453	2.222000e+00	-2.815182e+01	-5.655387e+00	0	0
1026406	2.222000e+00	-2.011849e+01	2.841839e+01	0	0
1028359	2.222000e+00	-1.070748e+01	2.266951e+01	0	0
1030313	2.221443e+00	-7.971848e+00	-6.396819e+00	0	0
1032266	2.221000e+00	3.673196e+00	6.627071e+00	0	0
1034219	2.221000e+00	1.694089e+00	-2.710979e+01	0	0
1036172	2.221000e+00	-8.320613e-01	-2.350208e+01	0	0
1038125	2.221000e+00	4.997090e+00	2.971418e+00	0	0
1040078	2.221000e+00	-3.110529e+00	-1.161158e+00	0	0
1042031	2.221000e+00	-1.675192e+00	1.370502e+00	0	0
1043984	2.221000e+00	1.068206e+01	-4.316215e+00	0	0
1045938	2.221000e+00	2.907861e+00	2.154093e+01	0	0
1047891	2.221000e+00	8.281857e+00	1.703604e+01	0	0
1049844	2.221000e+00	2.400129e+01	-4.477183e+00	0	0
1051797	2.221000e+00	2.976363e+01	4.159449e+00	0	0
1053750	2.221000e+00	3.706380e+01	-1.656839e+01	0	0
1055703	2.221000e+00	3.389099e+01	-2.917553e+01	0	0
1057656	2.221000e+00	2.709795e+01	-7.707066e+00	0	0
1059609	2.221000e+00	3.341270e+01	1.356536e+00	0	0
1061563	2.221000e+00	3.997608e+01	5.201562e-01	0	0
1063516	2.221000e+00	3.418913e+01	-3.513961e+00	0	0
1065469	2.221000e+00	3.707507e+01	1.812825e+01	0	0
1067422	2.221000e+00	4.640279e+01	1.673099e+01	0	0
1069375	2.221000e+00	5.674892e+01	-2.516627e+00	0	0
1071328	2.221000e+00	6.475675e+01	3.272200e+00	0	0
1073281	2.221000e+00	6.445237e+01	-1.609811e+01	0	0
1075234	2.221000e+00	6.520368e+01	-3.123505e+01	0	0
1077188	2.221000e+00	6.977851e+01	-9.485143e+00	0	0
1079141	2.221000e+00	6.930234e+01	1.478505e+00	0	0
1081094	2.221000e+00	6.691026e+01	7.233416e-02	0	0
1083047	2.221000e+00	7.252068e+01	-3.319242e+00	0	0
1085000	2.221000e+00	8.088427e+01	1.715402e+01	0	0
1086953	2.221000e+00	8.364103e+01	3.774328e+01	0	0
1088906	2.221000e+00	8.398355e+01	1.252860e+01	0	0
1090859	2.221000e+00	1.024732e+02	-4.389450e+00	0	0
1092813	2.220440e+00	1.167317e+02	4.938789e+00	0	0
1094766	2.220000e+00	1.290912e+02	-2.443570e+01	0	0
1096719	2.220000e+00	1.318089e+02	-3.439386e+01	0	0
1098672	2.220000e+00	1.295939e+02	-6.334785e+00	0	0
1100625	2.220000e+00	1.361963e+02	1.144072e+00	0	0
1102578	2.220000e+00	1.406623e+02	3.484925e+00	0	0
1104531	2.220000e+00	1.418859e+02	-3.292651e+00	0	0
1106484	2.220000e+00	1.574406e+02	3.281210e+01	0	0
1108438	2.220000e+00	1.721416e+02	2.442869e+01	0	0
1110391	2.220000e+00	1.823429e+02	-7.496494e+00	0	0
1112344	2.220000e+00	1.939129e+02	6.947743e+00	0	0
1114297	2.220000e+00	2.028728e+02	-3.082175e+01	0	0
1116250	2.220000e+00	2.036185e+02	-2.521029e+01	0	0
1118203	2.220000e+00	2.104004e+02	2.975802e-01	0	0
1120156	2.220000e+00	2.040871e+02	-7.621705e+00	0	0
1122109	2.220000e+00	2.170514e+02	-3.375158e+00	0	0
1124063	2.220000e+00	2.418216e+02	-7.013315e+00	0	0
1126016	2.220000e+00	2.477974e+02	2.320301e+01	0	0
1127969	2.220000e+00	2.639089e+02	1.809520e+01	0	0
1129922	2.220000e+00	2.777052e+02	-5.726652e+00	0	0
1131875	2.220000e+00	2.881248e+02	5.699844e+00	0	0
1133828	2.220000e+00	2.958289e+02	-1.610469e+01	0	0
1135781	2.220000e+00	3.079223e+02	-2.455539e+01	0	0
1137734	2.220000e+00	3.207519e+02	-1.716548e+00	0	0
1139688	2.220000e+00	3.285246e+02	4.311971e+00	0	0
1141641	2.220000e+00	3.346293e+02	4.129242e+00	0	0
1143594	2.220000e+00	3.436645e+02	-1.242972e+00	0	0
1145547	2.220000e+00	3.532014e+02	2.284565e+01	0	0
1147500	2.220000e+00	3.757142e+02	1.697203e+01	0	0
1149453	2.219438e+00	3.944252e+02	-4.597190e+00	0	0
1151406	2.219562e+00	4.120936e+02	3.765113e+00	0	0
1153359	2.220000e+00	4.225520e+02	-1.764698e+01	0	0
1155313	2.220000e+00	4.279190e+02	-3.751055e+01	0	0
1157266	2.219438e+00	4.341227e+02	-1.223771e+01	0	0
1159219	2.219000e+00	4.418559e+02	3.008337e+00	0	0
1161172	2.219000e+00	4.442493e+02	1.283656e+00	0	0
1163125	2.219000e+00	4.542442e+02	-2.077010e+00	0	0
1165078	2.219000e+00	4.651159e+02	2.094263e+01	0	0
1167031	2.219000e+00	4.804137e+02	3.651193e+01	0	0
1168984	2.219000e+00	5.015060e+02	9.677962e+00	0	0
1170938	2.219000e+00	5.142655e+02	-2.972972e+00	0	0
1172891	2.219000e+00	5.159794e+02	5.128427e+00	0	0
1174844	2.219000e+00	5.056566e+02	-2.643461e+01	0	0
1176797	2.219000e+00	5.121834e+02	-3.042744e+01	0	0
1178750	2.219000e+00	5.126978e+02	-2.612781e+00	0	0
1180703	2.219000e+00	5.050538e+02	-4.817276e-02	0	0
1182656	2.219000e+00	4.999996e+02	1.993327e+00	0	0
1184609	2.219000e+00	4.870917e+02	-9.295756e-02	0	0
1186563	2.219000e+00	4.761995e+02	3.648116e+01	0	0
1188516	2.219000e+00	4.586041e+02	2.526112e+01	0	0
1190469	2.219000e+00	4.484251e+02	-6.484443e+00	0	0
1192422	2.219000e+00	4.398834e+02	7.207325e+00	0	0
1194375	2.219000e+00	4.052123e+02	-3.010358e+01	0	0
1196328	2.219000e+00	3.762331e+02	-2.307316e+01	0	0
1198281	2.219000e+00	3.535756e+02	2.113945e+00	0	0
1200234	2.219000e+00	3.140790e+02	-6.578395e+00	0	0
1202188	2.219000e+00	2.822087e+02	-2.890726e+00	0	0
1204141	2.219000e+00	2.596478e+02	-6.745251e+00	0	0
1206094	2.219000e+00	2.329391e+02	2.124044e+01	0	0
1208047	2.219000e+00	2.152742e+02	1.609366e+01	0	0
1210000	2.219000e+00	1.973185e+02	-5.821551e+00	0	0
1211953	2.219000e+00	1.761501e+02	5.358198e+00	0	0
1213906	2.219000e+00	1.470624e+02	-1.469385e+01	0	0
1215859	2.219000e+00	1.158687e+02	-2.072387e+01	0	0
1217813	2.219000e+00	9.828378e+01	-1.407148e+00	0	0
1219766	2.219000e+00	7.360575e+01	1.570882e+00	0	0
1221719	2.219000e+00	5.153108e+01	1.068312e+00	0	0
1223672	2.218435e+00	3.979632e+01	-3.675957e+00	0	0
1225625	2.218000e+00	3.637967e+01	1.863126e+01	0	0
1227578	2.218000e+00	2.873901e+01	1.430629e+01	0	0
1229531	2.218000e+00	1.140344e+01	-3.961718e+00	0	0
1231484	2.218000e+00	4.572994e+00	3.796923e+00	0	0
1233438	2.218000e+00	4.829155e+00	-1.624470e+01	0	0
1235391	2.218000e+00	-1.228736e+01	-2.916553e+01	0	0
1237344	2.218000e+00	-2.744745e+01	-7.979843e+00	0	0
1239297	2.218000e+00	-2.926890e+01	1.438295e+00	0	0
1241250	2.218000e+00	-4.237233e+01	4.319921e-01	0	0
1243203	2.218000e+00	-3.755698e+01	-3.166248e+00	0	0
1245156	2.218000e+00	-3.594115e+01	1.777767e+01	0	0
1247109	2.218000e+00	-4.168268e+01	3.174859e+01	0	0
1249063	2.218000e+00	-3.064530e+01	8.344178e+00	0	0
1251016	2.218000e+00	-3.501791e+01	-1.419110e+00	0	0
1252969	2.218000e+00	-3.965175e+01	-2.751083e+00	0	0
1254922	2.218000e+00	-4.408139e+01	-2.827386e+01	0	0
1256875	2.218000e+00	-5.878109e+01	-2.700011e+01	0	0
1258828	2.218000e+00	-5.890480e+01	-3.559426e+00	0	0
1260781	2.218000e+00	-6.225517e+01	3.071897e-01	0	0
1262734	2.218000e+00	-6.266610e+01	1.183012e+00	0	0
1264688	2.218000e+00	-5.862522e+01	-4.045428e+00	0	0
1266641	2.218000e+00	-5.789755e+01	2.922592e+01	0	0
1268594	2.218000e+00	-5.678645e+01	2.144847e+01	0	0
1270547	2.218000e+00	-5.444268e+01	-6.126996e+00	0	0
1272500	2.218000e+00	-4.606573e+01	6.939622e+00	0	0
1274453	2.218000e+00	-4.319521e+01	-2.854815e+01	0	0
1276406	2.218000e+00	-6.657392e+01	-2.088806e+01	0	0
1278359	2.218000e+00	-7.509124e+01	4.342437e+00	0	0
1280313	2.218000e+00	-6.779031e+01	-2.845515e+00	0	0
1282266	2.218000e+00	-7.268345e+01	1.192510e+00	0	0
1284219	2.218000e+00	-8.346358e+01	-4.880471e+00	0	0
1286172	2.218000e+00	-8.155541e+01	2.526822e+01	0	0
1288125	2.217433e+00	-6.831582e+01	1.916921e+01	0	0
1290078	2.217000e+00	-6.475379e+01	-5.064287e+00	0	0
1292031	2.217000e+00	-5.714519e+01	4.810403e+00	0	0
1293984	2.217000e+00	-5.227914e+01	-1.977201e+01	0	0
1295938	2.217000e+00	-6.186740e+01	-3.759840e+01	0	0
1297891	2.217000e+00	-7.301341e+01	-1.064686e+01	0	0
1299844	2.217000e+00	-7.751686e+01	3.033971e+00	0	0
1301797	2.217000e+00	-8.172194e+01	2.151965e+00	0	0
1303750	2.217000e+00	-8.773118e+01	-2.221224e+00	0	0
1305703	2.217000e+00	-8.213292e+01	2.433278e+01	0	0
1307656	2.217000e+00	-7.090143e+01	1.852951e+01	0	0
1309609	2.217000e+00	-6.191468e+01	-4.199623e+00	0	0
1311563	2.217000e+00	-6.009277e+01	4.211156e+00	0	0
1313516	2.217000e+00	-5.967049e+01	-1.829715e+01	0	0
1315469	2.217000e+00	-6.321876e+01	-3.340130e+01	0	0
1317422	2.217000e+00	-7.450431e+01	-9.353830e+00	0	0
1319375	2.217000e+00	-7.342808e+01	1.777549e+00	0	0
1321328	2.217000e+00	-6.952625e+01	7.899778e-02	0	0
1323281	2.217000e+00	-7.733635e+01	-4.441858e+00	0	0
1325234	2.217000e+00	-8.315692e+01	1.552848e+01	0	0
1327188	2.217000e+00	-6.604652e+01	2.954733e+01	0	0
1329141	2.217000e+00	-5.372209e+01	7.368485e+00	0	0
1331094	2.217000e+00	-4.530012e+01	-2.304671e-01	0	0
1333047	2.217000e+00	-5.252049e+01	-8.014813e+00	0	0
1335000	2.217000e+00	-6.141214e+01	-2.962393e+01	0	0
1336953	2.217000e+00	-6.121153e+01	-2.326246e+01	0	0
1338906	2.217000e+00	-7.302294e+01	-3.058052e+00	0	0
1340859	2.217000e+00	-7.929047e+01	1.758269e+00	0	0
1342813	2.217000e+00	-7.502128e+01	-1.089757e-01	0	0
1344766	2.217000e+00	-7.890561e+01	3.467890e+00	0	0
1346719	2.217000e+00	-7.098109e+01	3.249974e+01	0	0
1348672	2.216430e+00	-6.457376e+01	1.822712e+01	0	0
1350625	2.216570e+00	-5.875686e+01	-5.183889e+00	0	0
1352578	2.216430e+00	-5.055582e+01	5.539627e+00	0	0
1354531	2.216000e+00	-5.683071e+01	-2.432550e+01	0	0
1356484	2.216000e+00	-6.071516e+01	-3.707963e+01	0	0
1358438	2.216000e+00	-6.420540e+01	-7.842960e+00	0	0
1360391	2.216000e+00	-6.813001e+01	1.235124e+00	0	0
1362344	2.216000e+00	-6.838212e+01	9.521160e-01	0	0
1364297	2.216000e+00	-6.447287e+01	-5.043583e+00	0	0
1366250	2.216000e+00	-6.364298e+01	2.634541e+01	0	0
1368203	2.216000e+00	-5.489292e+01	1.980820e+01	0	0
1370156	2.216000e+00	-4.499050e+01	-5.622625e+00	0	0
1372109	2.216000e+00	-4.399209e+01	5.724880e+00	0	0
1374063	2.216000e+00	-4.919909e+01	-2.389407e+01	0	0
1376016	2.216000e+00	-5.402038e+01	-2.271980e+01	0	0
1377969	2.216000e+00	-4.697164e+01	6.135230e-01	0	0
1379922	2.216000e+00	-5.502697e+01	-5.798800e-01	0	0
1381875	2.216000e+00	-5.942978e+01	1.158715e+00	0	0
1383828	2.216000e+00	-5.925774e+01	-4.055011e+00	0	0
1385781	2.216000e+00	-6.760615e+01	2.064327e+01	0	0
1387734	2.216000e+00	-4.705452e+01	1.537802e+01	0	0
1389688	2.216000e+00	-4.544313e+01	-4.168837e+00	0	0
1391641	2.216000e+00	-5.216073e+01	3.674643e+00	0	0
1393594	2.216000e+00	-4.302434e+01	-1.574997e+01	0	0
1395547	2.216000e+00	-5.156514e+01	-3.353742e+01	0	0
1397500	2.216000e+00	-5.965065e+01	-1.098608e+01	0	0
1399453	2.216000e+00	-5.641852e+01	2.114367e+00	0	0
1401406	2.216000e+00	-6.202690e+01	3.164732e-01	0	0
1403359	2.216000e+00	-6.053562e+01	-3.380225e+00	0	0
1405313	2.215428e+00	-5.420939e+01	1.853291e+01	0	0
1407266	2.215572e+00	-6.051972e+01	1.983414e+01	0	0
1409219	2.216000e+00	-6.090121e+01	-1.687951e-02	0	0
1411172	2.216000e+00	-5.737267e+01	2.088544e+00	0	0
1413125	2.215428e+00	-5.797364e+01	-1.306390e+01	0	0
1415078	2.215572e+00	-6.120229e+01	-3.420526e+01	0	0
1417031	2.215428e+00	-6.224095e+01	-1.311698e+01	0	0
1418984	2.215000e+00	-6.436616e+01	2.390546e+00	0	0
1420938	2.215000e+00	-7.450718e+01	-7.888736e-01	0	0
1422891	2.215000e+00	-8.193741e+01	-1.375813e+00	0	0
1424844	2.215000e+00	-8.388174e+01	7.390918e+00	0	0
1426797	2.215000e+00	-7.104809e+01	3.378789e+01	0	0
1428750	2.215000e+00	-6.384270e+01	1.595147e+01	0	0
1430703	2.215000e+00	-6.679813e+01	-5.254636e+00	0	0
1432656	2.215000e+00	-6.926277e+01	4.801904e+00	0	0
1434609	2.215000e+00	-7.273971e+01	-2.428862e+01	0	0
1436563	2.215000e+00	-7.525361e+01	-3.339449e+01	0	0
1438516	2.215000e+00	-7.649627e+01	-6.247471e+00	0	0
1440469	2.215000e+00	-7.807277e+01	1.493316e-01	0	0
1442422	2.215000e+00	-8.656351e+01	4.520239e-01	0	0
1444375	2.215000e+00	-8.864391e+01	-5.673004e+00	0	0
1446328	2.215000e+00	-7.498973e+01	2.566112e+01	0	0
1448281	2.215000e+00	-6.444147e+01	1.887632e+01	0	0
1450234	2.215000e+00	-6.891146e+01	-6.254475e+00	0	0
1452188	2.215000e+00	-7.121711e+01	5.284764e+00	0	0
1454141	2.215000e+00	-7.294518e+01	-2.576247e+01	0	0
1456094	2.215000e+00	-7.993293e+01	-2.524805e+01	0	0
1458047	2.215000e+00	-8.452209e+01	-5.313188e-01	0	0
1460000	2.215000e+00	-8.676768e+01	-1.097888e+00	0	0
1461953	2.215000e+00	-8.730052e+01	7.378218e-01	0	0
1463906	2.215000e+00	-9.041957e+01	-5.271771e+00	0	0
1465859	2.215000e+00	-9.364640e+01	2.368203e+01	0	0
1467813	2.215000e+00	-8.459474e+01	1.729310e+01	0	0
1469766	2.215000e+00	-7.269030e+01	-5.615770e+00	0	0
1471719	2.215000e+00	-6.285175e+01	4.389715e+00	0	0
1473672	2.215000e+00	-6.195162e+01	-2.203901e+01	0	0
1475625	2.215000e+00	-6.878468e+01	-2.933333e+01	0	0
1477578	2.215000e+00	-7.289081e+01	-5.322451e+00	0	0
1479531	2.215000e+00	-7.861274e+01	-7.775536e-02	0	0
1481484	2.214425e+00	-9.175874e+01	1.574412e-01	0	0
1483438	2.214000e+00	-8.666451e+01	-4.752898e+00	0	0
1485391	2.214575e+00	-8.641540e+01	2.093530e+01	0	0
1487344	2.214425e+00	-8.740588e+01	2.237238e+01	0	0
1489297	2.214000e+00	-7.236679e+01	-7.832950e-01	0	0
1491250	2.214000e+00	-7.415836e+01	2.667834e+00	0	0
1493203	2.214000e+00	-6.929377e+01	-1.954309e+01	0	0
1495156	2.214000e+00	-7.238276e+01	-4.062822e+01	0	0
1497109	2.214000e+00	-8.894280e+01	-1.429209e+01	0	0
1499063	2.214000e+00	-9.203719e+01	1.343848e+00	0	0
1501016	2.214000e+00	-9.292905e+01	-1.030958e+00	0	0
1502969	2.214000e+00	-9.033484e+01	-2.472905e+00	0	0
1504922	2.214000e+00	-8.220744e+01	9.882403e+00	0	0
1506875	2.214000e+00	-7.653288e+01	3.702486e+01	0	0
1508828	2.214000e+00	-6.105079e+01	1.581877e+01	0	0
1510781	2.214000e+00	-4.645627e+01	-5.925559e+00	0	0
1512734	2.214000e+00	-4.397115e+01	4.819694e+00	0	0
1514688	2.214000e+00	-4.200324e+01	-2.691109e+01	0	0
1516641	2.214000e+00	-1.905656e+01	-3.233407e+01	0	0
1518594	2.214000e+00	1.348890e+01	-4.410240e+00	0	0
1520547	2.214000e+00	2.667686e+01	-4.790710e-01	0	0
1522500	2.214000e+00	3.974211e+01	6.606038e-01	0	0
1524453	2.214000e+00	5.616804e+01	-5.962335e+00	0	0
1526406	2.214000e+00	6.014316e+01	2.788275e+01	0	0
1528359	2.214000e+00	6.782214e+01	2.044271e+01	0	0
1530313	2.214000e+00	6.457509e+01	-6.175272e+00	0	0
1532266	2.214000e+00	6.614564e+01	6.564359e+00	0	0
1534219	2.214000e+00	7.597262e+01	-2.788333e+01	0	0
1536172	2.214000e+00	7.361519e+01	-1.961418e+01	0	0
1538125	2.213423e+00	9.847974e+01	4.538200e+00	0	0
1540078	2.213577e+00	9.891593e+01	-1.522527e+00	0	0
1542031	2.214000e+00	9.481491e+01	1.552026e+00	0	0
1543984	2.213423e+00	1.129496e+02	-4.685633e+00	0	0
1545938	2.213000e+00	1.238710e+02	2.377115e+01	0	0
1547891	2.213000e+00	1.277294e+02	1.719020e+01	0	0
1549844	2.213000e+00	1.480754e+02	-4.750751e+00	0	0
1551797	2.213000e+00	1.807609e+02	4.377236e+00	0	0
1553750	2.213000e+00	1.823915e+02	-1.886952e+01	0	0
1555703	2.213000e+00	1.779942e+02	-3.386707e+01	0	0
1557656	2.213000e+00	1.751174e+02	-9.298518e+00	0	0
1559609	2.213000e+00	1.628285e+02	1.717429e+00	0	0
1561563	2.213000e+00	1.602306e+02	6.871711e-01	0	0
1563516	2.213000e+00	1.642662e+02	-3.836703e+00	0	0
1565469	2.213000e+00	1.524663e+02	2.171455e+01	0	0
1567422	2.213000e+00	1.461802e+02	1.585770e+01	0	0
1569375	2.213000e+00	1.451095e+02	-3.802498e+00	0	0
1571328	2.213000e+00	1.490829e+02	5.100625e+00	0	0
1573281	2.213000e+00	1.482655e+02	-1.731919e+01	0	0
1575234	2.213000e+00	1.310512e+02	-3.412954e+01	0	0
1577188	2.213000e+00	1.089508e+02	-1.379222e+01	0	0
1579141	2.213000e+00	8.222249e+01	1.115810e+00	0	0
1581094	2.213000e+00	4.914146e+01	2.187302e+00	0	0
1583047	2.213000e+00	1.990516e+01	1.038560e+00	0	0
1585000	2.213000e+00	2.425010e+00	8.705131e+00	0	0
1586953	2.213000e+00	-1.074181e+01	3.732163e+01	0	0
1588906	2.213000e+00	-1.916020e+01	1.940208e+01	0	0
1590859	2.213000e+00	-3.127329e+01	-3.673258e+00	0	0
1592813	2.213000e+00	-4.577194e+01	7.654446e+00	0	0
1594766	2.213000e+00	-5.725778e+01	-2.759614e+01	0	0
1596719	2.213000e+00	-7.455254e+01	-3.303270e+01	0	0
1598672	2.213000e+00	-8.960480e+01	-2.627433e+00	0	0
1600625	2.213000e+00	-9.584502e+01	1.211278e+00	0	0
1602578	2.212420e+00	-1.065360e+02	2.612993e+00	0	0
1604531	2.212000e+00	-1.133123e+02	-5.602094e+00	0	0
1606484	2.212580e+00	-1.186588e+02	3.533903e+01	0	0
1608438	2.212420e+00	-1.215374e+02	2.573511e+01	0	0
1610391	2.212000e+00	-1.134300e+02	-6.395125e+00	0	0
1612344	2.212580e+00	-1.025146e+02	8.877883e+00	0	0
1614297	2.212420e+00	-1.146132e+02	-3.339081e+01	0	0
1616250	2.212000e+00	-1.194154e+02	-2.291189e+01	0	0
1618203	2.212000e+00	-1.149707e+02	5.726045e+00	0	0
1620156	2.212000e+00	-1.323295e+02	-2.397324e+00	0	0
1622109	2.212000e+00	-1.294853e+02	7.033059e-01	0	0
1624063	2.212000e+00	-1.380426e+02	-6.594795e+00	0	0
1626016	2.212000e+00	-1.384212e+02	2.528259e+01	0	0
1627969	2.212000e+00	-1.321024e+02	1.774545e+01	0	0
1629922	2.212000e+00	-1.307077e+02	-6.225164e+00	0	0
1631875	2.212000e+00	-1.304751e+02	4.306430e+00	0	0
1633828	2.212000e+00	-1.336668e+02	-2.062636e+01	0	0
1635781	2.212000e+00	-1.361388e+02	-2.858746e+01	0	0
1637734	2.212000e+00	-1.484582e+02	-5.582390e+00	0	0
1639688	2.212000e+00	-1.546789e+02	3.868468e-01	0	0
1641641	2.212000e+00	-1.553231e+02	3.623302e-01	0	0
1643594	2.212000e+00	-1.600829e+02	-3.923847e+00	0	0
1645547	2.212000e+00	-1.540831e+02	1.904929e+01	0	0
1647500	2.212000e+00	-1.465925e+02	1.542625e+01	0	0
1649453	2.212000e+00	-1.420471e+02	-2.560554e+00	0	0
1651406	2.212000e+00	-1.383318e+02	2.303402e+00	0	0
1653359	2.212000e+00	-1.425027e+02	-1.094894e+01	0	0
1655313	2.212000e+00	-1.405348e+02	-3.029239e+01	0	0
1657266	2.212000e+00	-1.516757e+02	-1.312521e+01	0	0
1659219	2.212000e+00	-1.570537e+02	1.718607e+00	0	0
1661172	2.212000e+00	-1.607020e+02	1.194742e+00	0	0
1663125	2.212000e+00	-1.582535e+02	-3.132806e+00	0	0
1665078	2.212000e+00	-1.409152e+02	2.266603e+01	0	0
1667031	2.212000e+00	-1.372861e+02	3.196430e+01	0	0
1668984	2.212000e+00	-1.578122e+02	7.337323e+00	0	0
1670938	2.211417e+00	-1.854252e+02	-1.319059e+00	0	0
1672891	2.211583e+00	-2.113768e+02	6.724398e+00	0	0
1674844	2.212000e+00	-2.180826e+02	-2.680803e+01	0	0
1676797	2.212000e+00	-2.110824e+02	-3.224305e+01	0	0
1678750	2.212000e+00	-1.562871e+02	-3.278557e+00	0	0
1680703	2.211417e+00	-8.991647e+01	1.346684e-01	0	0
1682656	2.211000e+00	-3.019333e+00	1.541813e+00	0	0
1684609	2.211000e+00	9.597099e+01	-6.301935e+00	0	0
1686563	2.211000e+00	2.025589e+02	3.299707e+01	0	0
1688516	2.211000e+00	3.669733e+02	2.343112e+01	0	0
1690469	2.211000e+00	6.323837e+02	-6.837060e+00	0	0
1692422	2.211000e+00	8.968355e+02	7.278269e+00	0	0
1694375	2.211000e+00	1.128615e+03	-3.195972e+01	0	0
1696328	2.211000e+00	1.395256e+03	-2.802323e+01	0	0
1698281	2.211000e+00	1.638257e+03	-7.199896e-01	0	0
1700234	2.211000e+00	1.792519e+03	-4.673488e+00	0	0
1702188	2.211000e+00	1.762064e+03	-1.474176e+00	0	0
1704141	2.211000e+00	1.633794e+03	-6.143062e+00	0	0
1706094	2.211000e+00	1.371537e+03	2.474814e+01	0	0
1708047	2.211000e+00	1.077190e+03	1.723440e+01	0	0
1710000	2.211000e+00	8.397536e+02	-5.819156e+00	0	0
1711953	2.211000e+00	6.548201e+02	4.856744e+00	0	0
1713906	2.211000e+00	4.869661e+02	-1.871101e+01	0	0
1715859	2.211000e+00	1.722666e+02	-2.786891e+01	0	0
1717813	2.211000e+00	-1.245780e+02	-4.397561e+00	0	0
1719766	2.211000e+00	-2.410674e+02	2.350249e+00	0	0
1721719	2.211000e+00	-2.899571e+02	1.721823e+00	0	0
1723672	2.211000e+00	-2.924206e+02	-3.878573e+00	0	0
1725625	2.211000e+00	-2.550795e+02	2.138982e+01	0	0
1727578	2.211000e+00	-2.198795e+02	1.453675e+01	0	0
1729531	2.211000e+00	-1.723371e+02	-5.308578e+00	0	0
1731484	2.211000e+00	-1.284829e+02	3.357928e+00	0	0
1733438	2.211000e+00	-1.019185e+02	-1.993662e+01	0	0
1735391	2.211000e+00	-8.417391e+01	-3.378040e+01	0	0
1737344	2.210415e+00	-7.858645e+01	-9.103838e+00	0	0
1739297	2.210585e+00	-8.734169e+01	1.589804e+00	0	0
1741250	2.210415e+00	-9.041994e+01	8.856760e-01	0	0
1743203	2.210000e+00	-9.232369e+01	-3.323185e+00	0	0
1745156	2.210585e+00	-9.562068e+01	1.810886e+01	0	0
1747109	2.210415e+00	-9.294117e+01	3.434461e+01	0	0
1749063	2.210000e+00	-8.397320e+01	9.897212e+00	0	0
1751016	2.210000e+00	-8.129541e+01	-1.901888e+00	0	0
1752969	2.210000e+00	-8.055250e+01	2.070856e+00	0	0
1754922	2.210000e+00	-8.695720e+01	-2.484499e+01	0	0
1756875	2.210000e+00	-9.091568e+01	-3.424909e+01	0	0
1758828	2.210000e+00	-8.770592e+01	-8.080235e+00	0	0
1760781	2.210000e+00	-8.342985e+01	1.728232e+00	0	0
1762734	2.210000e+00	-8.864779e+01	2.941561e+00	0	0
1764688	2.210000e+00	-1.023516e+02	-3.829715e+00	0	0
1766641	2.210000e+00	-1.012205e+02	3.034993e+01	0	0
1768594	2.210000e+00	-8.512961e+01	2.069889e+01	0	0
1770547	2.210000e+00	-7.289968e+01	-6.414092e+00	0	0
1772500	2.210000e+00	-6.593405e+01	6.870529e+00	0	0
1774453	2.210000e+00	-7.790063e+01	-3.042689e+01	0	0
1776406	2.210000e+00	-8.251595e+01	-2.059062e+01	0	0
1778359	2.210000e+00	-7.155824e+01	3.707612e+00	0	0
1780313	2.210000e+00	-8.127134e+01	-3.321440e+00	0	0
1782266	2.210000e+00	-8.876892e+01	4.363354e-01	0	0
1784219	2.210000e+00	-8.109509e+01	-6.000610e+00	0	0
1786172	2.210000e+00	-7.518703e+01	2.470422e+01	0	0
1788125	2.210000e+00	-6.923694e+01	1.653699e+01	0	0
1790078	2.210000e+00	-5.716449e+01	-6.771900e+00	0	0
1792031	2.210000e+00	-5.513949e+01	3.617109e+00	0	0
1793984	2.210000e+00	-6.035598e+01	-2.404306e+01	0	0
1795938	2.210000e+00	-5.774082e+01	-2.822088e+01	0	0
1797891	2.210000e+00	-5.707776e+01	-3.870759e+00	0	0
1799844	2.210000e+00	-6.517986e+01	2.283534e-01	0	0
1801797	2.210000e+00	-7.120615e+01	1.076577e+00	0	0
1803750	2.210000e+00	-5.670497e+01	-4.556096e+00	0	0
1805703	2.210000e+00	-5.059084e+01	2.405018e+01	0	0
1807656	2.209412e+00	-5.083651e+01	1.674821e+01	0	0
1809609	2.209000e+00	-3.942268e+01	-4.908192e+00	0	0
1811563	2.209000e+00	-2.609057e+01	5.261575e+00	0	0
1813516	2.209000e+00	-3.187242e+01	-2.313646e+01	0	0
1815469	2.209588e+00	-3.692642e+01	-2.462110e+01	0	0
1817422	2.209411e+00	-3.206092e+01	-1.620773e+00	0	0
1819375	2.209000e+00	-3.346301e+01	-7.866256e-02	0	0
1821328	2.209000e+00	-3.176108e+01	1.220551e+00	0	0
1823281	2.209000e+00	-3.383530e+01	-3.412110e+00	0	0
1825234	2.209000e+00	-3.010083e+01	2.387731e+01	0	0
1827188	2.209000e+00	-2.766760e+01	3.371100e+01	0	0
1829141	2.209000e+00	-2.104725e+01	7.594370e+00	0	0
1831094	2.209000e+00	-6.432379e+00	6.182363e-02	0	0
1833047	2.209000e+00	3.460253e+00	-1.271142e+00	0	0
1835000	2.209000e+00	-1.640776e+00	-3.130971e+01	0	0
1836953	2.209000e+00	-1.540883e+00	-2.658765e+01	0	0
1838906	2.209000e+00	-8.021504e+00	-1.797842e+00	0	0
1840859	2.209000e+00	-5.392102e+00	3.952475e-01	0	0
1842813	2.209000e+00	2.712363e+00	2.430855e+00	0	0
1844766	2.209000e+00	5.148032e+00	-4.462020e+00	0	0
1846719	2.209000e+00	1.231449e+01	3.193348e+01	0	0
1848672	2.209000e+00	2.039857e+01	2.144373e+01	0	0
1850625	2.209000e+00	3.174185e+01	-6.332502e+00	0	0
1852578	2.209000e+00	3.782694e+01	6.789737e+00	0	0
1854531	2.209000e+00	3.819203e+01	-3.210990e+01	0	0
1856484	2.209000e+00	4.005269e+01	-2.379860e+01	0	0
1858438	2.209000e+00	4.316143e+01	8.014523e-02	0	0
1860391	2.209000e+00	4.109393e+01	-5.896643e+00	0	0
1862344	2.209000e+00	4.500903e+01	-2.683814e-01	0	0
1864297	2.209000e+00	4.564836e+01	-5.318868e+00	0	0
1866250	2.209000e+00	5.282950e+01	2.462756e+01	0	0
1868203	2.209000e+00	6.294275e+01	1.704034e+01	0	0
1870156	2.208410e+00	7.630339e+01	-4.659542e+00	0	0
1872109	2.208590e+00	9.553644e+01	6.353862e+00	0	0
1874063	2.209000e+00	1.001484e+02	-1.569250e+01	0	0
1876016	2.208409e+00	9.737421e+01	-2.585234e+01	0	0
1877969	2.208000e+00	1.062522e+02	-4.214285e+00	0	0
1879922	2.208000e+00	1.092982e+02	2.351480e+00	0	0
1881875	2.208000e+00	1.078310e+02	1.073090e+00	0	0
1883828	2.208000e+00	1.172648e+02	-3.555247e+00	0	0
1885781	2.208000e+00	1.198647e+02	1.921335e+01	0	0
1887734	2.208000e+00	1.318435e+02	1.316323e+01	0	0
1889688	2.208000e+00	1.511555e+02	-3.728737e+00	0	0
1891641	2.208000e+00	1.595359e+02	3.610308e+00	0	0
1893594	2.208000e+00	1.641314e+02	-1.613390e+01	0	0
1895547	2.208000e+00	1.662240e+02	-2.718049e+01	0	0
1897500	2.208000e+00	1.717241e+02	-6.418537e+00	0	0
1899453	2.208000e+00	1.856139e+02	2.169189e+00	0	0
1901406	2.208000e+00	1.947312e+02	1.384597e+00	0	0
1903359	2.208000e+00	1.930291e+02	-1.972338e+00	0	0
1905313	2.208000e+00	2.036252e+02	1.771885e+01	0	0
1907266	2.208000e+00	2.188040e+02	2.361120e+01	0	0
1909219	2.208000e+00	2.371293e+02	3.518541e+00	0	0
1911172	2.208000e+00	2.585526e+02	1.565115e+00	0	0
1913125	2.208000e+00	2.700647e+02	-1.355217e+01	0	0
1915078	2.208000e+00	2.734536e+02	-3.076701e+01	0	0
1917031	2.208000e+00	2.868627e+02	-2.164397e+01	0	0
1918984	2.208000e+00	2.934602e+02	-4.254792e+00	0	0
1920938	2.208000e+00	2.930318e+02	7.961885e-01	0	0
1922891	2.208000e+00	3.088592e+02	1.013567e-01	0	0
1924844	2.208000e+00	3.214515e+02	2.513067e-01	0	0
1926797	2.208000e+00	3.324071e+02	2.865580e+01	0	0
1928750	2.208000e+00	3.504232e+02	1.652923e+01	0	0
1930703	2.208000e+00	3.639297e+02	-5.003037e+00	0	0
1932656	2.208000e+00	3.778187e+02	5.877810e+00	0	0
1934609	2.208000e+00	3.909960e+02	-2.624482e+01	0	0
1936563	2.208000e+00	4.017404e+02	-2.083070e+01	0	0
1938516	2.208000e+00	4.078753e+02	2.020432e+00	0	0
1940469	2.208000e+00	4.183428e+02	-9.581011e-01	0	0
1942422	2.208000e+00	4.255434e+02	1.492490e+00	0	0
1944375	2.208000e+00	4.263180e+02	-5.037378e+00	0	0
1946328	2.207406e+00	4.374645e+02	2.615782e+01	0	0
1948281	2.207000e+00	4.442634e+02	1.764903e+01	0	0
1950234	2.207000e+00	4.717264e+02	-5.409455e+00	0	0
1952188	2.207000e+00	4.852086e+02	5.516470e+00	0	0
1954141	2.207000e+00	4.771634e+02	-2.487344e+01	0	0
1956094	2.207000e+00	4.719914e+02	-2.082362e+01	0	0
1958047	2.207000e+00	4.631839e+02	1.185426e+00	0	0
1960000	2.207000e+00	4.589280e+02	-7.011214e-01	0	0
1961953	2.207000e+00	4.420947e+02	1.235470e+00	0	0
1963906	2.207000e+00	4.266249e+02	-4.240806e+00	0	0
1965859	2.207000e+00	4.157950e+02	2.224800e+01	0	0
1967813	2.207000e+00	4.007211e+02	1.496523e+01	0	0
1969766	2.207000e+00	3.880246e+02	-4.286062e+00	0	0
1971719	2.207000e+00	3.690591e+02	4.241861e+00	0	0
1973672	2.207000e+00	3.420062e+02	-1.884250e+01	0	0
1975625	2.207000e+00	3.022535e+02	-2.663680e+01	0	0
1977578	2.207000e+00	2.746230e+02	-5.206323e+00	0	0
1979531	2.207000e+00	2.428015e+02	8.519201e-01	0	0
1981484	2.207000e+00	2.063433e+02	6.159761e-01	0	0
1983438	2.207000e+00	1.798169e+02	-3.316304e+00	0	0
1985391	2.207000e+00	1.561033e+02	1.868157e+01	0	0
1987344	2.207000e+00	1.405724e+02	2.325486e+01	0	0
1989297	2.207000e+00	1.177555e+02	3.213129e+00	0	0
1991250	2.207000e+00	9.655186e+01	-4.049971e-01	0	0
1993203	2.207000e+00	7.779073e+01	-2.588925e+00	0	0
1995156	2.207000e+00	5.379685e+01	-2.481102e+01	0	0
1997109	2.207000e+00	3.630412e+01	-2.914126e+01	0	0
1999063	2.207000e+00	1.888773e+01	-6.197120e+00	0	0
2001016	2.207000e+00	-2.670634e+00	2.055336e+00	0	0
2002969	2.207000e+00	-1.573729e+01	-8.305042e-01	0	0
2004922	2.207000e+00	-3.153465e+01	5.704268e+00	0	0
2006875	2.207000e+00	-4.224461e+01	3.681185e+01	0	0
2008828	2.207000e+00	-4.499671e+01	1.812771e+01	0	0
2010781	2.207000e+00	-5.012940e+01	-5.610517e+00	0	0
2012734	2.207000e+00	-5.755383e+01	7.010809e+00	0	0
2014688	2.207000e+00	-6.663731e+01	-3.178099e+01	0	0
2016641	2.207000e+00	-6.854494e+01	-2.159486e+01	0	0
2018594	2.206403e+00	-8.182956e+01	4.251737e+00	0	0
2020547	2.206000e+00	-9.453879e+01	-1.554415e+00	0	0
2022500	2.206597e+00	-9.549682e+01	1.880568e+00	0	0
2024453	2.206403e+00	-1.039322e+02	-5.967948e+00	0	0
2026406	2.206000e+00	-1.029928e+02	3.123100e+01	0	0
2028359	2.206000e+00	-9.777688e+01	2.078321e+01	0	0
2030313	2.206000e+00	-9.445127e+01	-6.025380e+00	0	0
2032266	2.206000e+00	-9.370444e+01	6.169159e+00	0	0
2034219	2.206000e+00	-9.406899e+01	-2.717795e+01	0	0
2036172	2.206000e+00	-9.897305e+01	-2.920045e+01	0	0
2038125	2.206000e+00	-1.060160e+02	-2.450857e+00	0	0
2040078	2.206000e+00	-1.145287e+02	1.388120e-01	0	0
2042031	2.206000e+00	-1.183814e+02	9.512557e-01	0	0
2043984	2.206000e+00	-1.205127e+02	-3.943834e+00	0	0
2045938	2.206000e+00	-1.192308e+02	2.109841e+01	0	0
2047891	2.206000e+00	-1.129021e+02	1.393391e+01	0	0
2049844	2.206000e+00	-1.062759e+02	-3.909723e+00	0	0
2051797	2.206000e+00	-1.118802e+02	3.596915e+00	0	0
2053750	2.206000e+00	-1.149741e+02	-1.582289e+01	0	0
2055703	2.206000e+00	-1.220681e+02	-2.450928e+01	0	0
2057656	2.206000e+00	-1.309773e+02	-5.610411e+00	0	0
2059609	2.206000e+00	-1.315320e+02	1.025305e+00	0	0
2061563	2.206000e+00	-1.468534e+02	3.609338e-01	0	0
2063516	2.206000e+00	-1.504557e+02	-2.467654e+00	0	0
2065469	2.206000e+00	-1.447102e+02	1.456763e+01	0	0
2067422	2.206000e+00	-1.520244e+02	2.384216e+01	0	0
2069375	2.206000e+00	-1.491008e+02	5.137352e+00	0	0
2071328	2.206000e+00	-1.415860e+02	7.356702e-01	0	0
2073281	2.206000e+00	-1.435411e+02	-1.136914e+01	0	0
2075234	2.206000e+00	-1.433923e+02	-2.716198e+01	0	0
2077188	2.206000e+00	-1.399298e+02	-1.902347e+01	0	0
2079141	2.206000e+00	-1.369670e+02	-2.150029e+00	0	0
2081094	2.205400e+00	-1.473252e+02	3.571869e+00	0	0
2083047	2.205600e+00	-1.476417e+02	-6.158884e-01	0	0
2085000	2.206000e+00	-1.474352e+02	1.015687e+01	0	0
2086953	2.206000e+00	-1.414648e+02	3.462357e+01	0	0
2088906	2.205400e+00	-1.455004e+02	1.438772e+01	0	0
2090859	2.205000e+00	-1.444612e+02	-4.420352e+00	0	0
2092813	2.205000e+00	-1.292102e+02	5.247424e+00	0	0
2094766	2.205000e+00	-1.349359e+02	-2.911722e+01	0	0
2096719	2.205000e+00	-1.451422e+02	-1.982794e+01	0	0
2098672	2.205000e+00	-1.384083e+02	3.275637e+00	0	0
2100625	2.205000e+00	-1.371953e+02	-1.258034e+00	0	0
2102578	2.205000e+00	-1.475516e+02	1.616529e+00	0	0
2104531	2.205000e+00	-1.452920e+02	-5.208150e+00	0	0
2106484	2.205000e+00	-1.423015e+02	2.743723e+01	0	0
2108438	2.205000e+00	-1.385029e+02	1.799258e+01	0	0
2110391	2.205000e+00	-1.244171e+02	-5.394640e+00	0	0
2112344	2.205000e+00	-1.155387e+02	5.984850e+00	0	0
2114297	2.205000e+00	-1.173020e+02	-2.661625e+01	0	0
2116250	2.205000e+00	-1.209640e+02	-2.055285e+01	0	0
2118203	2.205000e+00	-1.273934e+02	1.928298e+00	0	0
2120156	2.205000e+00	-1.345706e+02	-9.105148e-01	0	0
2122109	2.205000e+00	-1.325564e+02	1.423279e+00	0	0
2124063	2.205000e+00	-1.280438e+02	-4.783050e+00	0	0
2126016	2.205000e+00	-1.403773e+02	2.532525e+01	0	0
2127969	2.205000e+00	-1.396491e+02	1.644954e+01	0	0
2129922	2.205000e+00	-1.269705e+02	-4.668987e+00	0	0
2131875	2.205000e+00	-1.222624e+02	4.421797e+00	0	0
2133828	2.205000e+00	-1.203762e+02	-2.020452e+01	0	0
2135781	2.205000e+00	-1.197666e+02	-3.654820e+01	0	0
2137734	2.205000e+00	-1.305013e+02	-1.000666e+01	0	0
2139688	2.205000e+00	-1.363719e+02	1.910516e+00	0	0
2141641	2.205000e+00	-1.344305e+02	5.136726e-01	0	0
2143594	2.205000e+00	-1.360989e+02	-3.965108e+00	0	0
2145547	2.205000e+00	-1.325006e+02	2.199554e+01	0	0
2147500	2.205000e+00	-1.294253e+02	1.431771e+01	0	0
2149453	2.205000e+00	-1.315858e+02	-3.833180e+00	0	0
2151406	2.205000e+00	-1.265583e+02	4.646454e+00	0	0
2153359	2.205000e+00	-1.257137e+02	-1.776249e+01	0	0
2155313	2.205000e+00	-1.375402e+02	-3.331593e+01	0	0
2157266	2.205000e+00	-1.380482e+02	-2.059053e+01	0	0
2159219	2.205000e+00	-1.393208e+02	-3.204552e+00	0	0
2161172	2.204396e+00	-1.464200e+02	1.969732e+00	0	0
2163125	2.204604e+00	-1.420529e+02	4.845066e-01	0	0
2165078	2.205000e+00	-1.410504e+02	2.531928e+00	0	0
2167031	2.204396e+00	-1.481437e+02	3.025730e+01	0	0
2168984	2.204000e+00	-1.424422e+02	1.571557e+01	0	0
2170938	2.204000e+00	-1.370159e+02	-4.708376e+00	0	0
2172891	2.204000e+00	-1.368521e+02	5.341468e+00	0	0
2174844	2.204000e+00	-1.415176e+02	-2.520557e+01	0	0
2176797	2.204000e+00	-1.416239e+02	-3.558097e+01	0	0
2178750	2.204000e+00	-1.372489e+02	-6.979290e+00	0	0
2180703	2.204000e+00	-1.447519e+02	1.096816e+00	0	0
2182656	2.204000e+00	-1.460344e+02	1.088497e+00	0	0
2184609	2.204000e+00	-1.459349e+02	-5.450746e+00	0	0
2186563	2.204000e+00	-1.485259e+02	2.977970e+01	0	0
2188516	2.204000e+00	-1.434091e+02	1.926414e+01	0	0
2190469	2.204000e+00	-1.403716e+02	-5.864831e+00	0	0
2192422	2.204000e+00	-1.348932e+02	6.715945e+00	0	0
2194375	2.204000e+00	-1.404159e+02	-2.999786e+01	0	0
2196328	2.204000e+00	-1.519845e+02	-1.865037e+01	0	0
2198281	2.204000e+00	-1.575973e+02	4.419247e+00	0	0
2200234	2.204000e+00	-1.689029e+02	-1.526036e+00	0	0
2202188	2.204000e+00	-1.699132e+02	1.684883e+00	0	0
2204141	2.204000e+00	-1.660265e+02	-5.214851e+00	0	0
2206094	2.204000e+00	-1.683893e+02	2.756712e+01	0	0
2208047	2.204000e+00	-1.618010e+02	1.766413e+01	0	0
2210000	2.204000e+00	-1.615798e+02	-5.199748e+00	0	0
2211953	2.204000e+00	-1.622772e+02	5.446483e+00	0	0
2213906	2.204000e+00	-1.570043e+02	-2.460292e+01	0	0
2215859	2.204000e+00	-1.616268e+02	-2.756537e+01	0	0
2217813	2.204000e+00	-1.639965e+02	-3.022593e+00	0	0
2219766	2.204000e+00	-1.719027e+02	2.691335e-01	0	0
2221719	2.204000e+00	-1.797489e+02	1.026050e+00	0	0
2223672	2.204000e+00	-1.820838e+02	-4.373316e+00	0	0
2225625	2.204000e+00	-1.808737e+02	2.427925e+01	0	0
2227578	2.204000e+00	-1.758249e+02	2.323673e+01	0	0
2229531	2.204000e+00	-1.662202e+02	-5.367768e-01	0	0
2231484	2.204000e+00	-1.606065e+02	3.687697e+00	0	0
2233438	2.204000e+00	-1.533569e+02	-2.275847e+01	0	0
2235391	2.204000e+00	-1.587806e+02	-3.495727e+01	0	0
2237344	2.204000e+00	-1.622043e+02	-8.197020e+00	0	0
2239297	2.204000e+00	-1.621129e+02	6.519120e-01	0	0
2241250	2.204000e+00	-1.742553e+02	-7.268834e-02	0	0
2243203	2.204000e+00	-1.774470e+02	-5.060664e+00	0	0
2245156	2.203393e+00	-1.828340e+02	2.358306e+01	0	0
2247109	2.203607e+00	-1.812768e+02	3.266791e+01	0	0
2249063	2.203392e+00	-1.773032e+02	5.685581e+00	0	0
2251016	2.203608e+00	-1.751235e+02	-3.711692e+00	0	0
2252969	2.203392e+00	-1.708853e+02	4.675164e+00	0	0
2254922	2.203608e+00	-1.776077e+02	-2.956198e+01	0	0
2256875	2.203392e+00	-1.878182e+02	-2.193250e+01	0	0
2258828	2.203608e+00	-1.893912e+02	1.812258e+00	0	0
2260781	2.203392e+00	-1.805465e+02	-1.540403e+00	0	0
2262734	2.203000e+00	-1.830381e+02	1.408701e+00	0	0
2264688	2.203000e+00	-1.792608e+02	-5.616464e+00	0	0
2266641	2.203000e+00	-1.687108e+02	2.976692e+01	0	0
2268594	2.203000e+00	-1.602220e+02	1.889357e+01	0	0
2270547	2.203000e+00	-1.425632e+02	-5.763503e+00	0	0
2272500	2.203000e+00	-1.347173e+02	6.592763e+00	0	0
2274453	2.203000e+00	-1.172508e+02	-2.959374e+01	0	0
2276406	2.203000e+00	-9.627170e+01	-1.809778e+01	0	0
2278359	2.203000e+00	-8.714441e+01	4.296035e+00	0	0
2280313	2.203000e+00	-8.011756e+01	-1.469749e+00	0	0
2282266	2.203000e+00	-7.205906e+01	1.588001e+00	0	0
2284219	2.203000e+00	-7.470545e+01	-4.882327e+00	0	0
2286172	2.203000e+00	-7.361091e+01	2.592915e+01	0	0
2288125	2.203000e+00	-5.758340e+01	1.631807e+01	0	0
2290078	2.203000e+00	-3.861171e+01	-4.742356e+00	0	0
2292031	2.203000e+00	-3.782363e+01	4.753384e+00	0	0
2293984	2.203000e+00	-4.143833e+01	-2.152467e+01	0	0
2295938	2.203000e+00	-3.284000e+01	-2.701122e+01	0	0
2297891	2.203000e+00	-2.641388e+01	-4.268077e+00	0	0
2299844	2.203000e+00	-1.957365e+01	6.098634e-01	0	0
2301797	2.203000e+00	-8.324603e+00	8.219516e-01	0	0
2303750	2.203000e+00	-4.214032e+00	-3.873363e+00	0	0
2305703	2.203000e+00	1.505619e+00	2.175440e+01	0	0
2307656	2.203000e+00	1.399215e+01	1.406802e+01	0	0
2309609	2.203000e+00	3.920509e+01	-2.916334e+00	0	0
2311563	2.203000e+00	7.191508e+01	4.495740e+00	0	0
2313516	2.203000e+00	7.109210e+01	-1.483380e+01	0	0
2315469	2.203000e+00	6.254313e+01	-3.200337e+01	0	0
2317422	2.203000e+00	6.397818e+01	-9.979246e+00	0	0
2319375	2.203000e+00	3.374312e+01	2.341914e+00	0	0
2321328	2.203000e+00	3.133697e+01	8.694331e-01	0	0
2323281	2.203000e+00	3.206580e+01	-3.111730e+00	0	0
2325234	2.203000e+00	1.760898e+01	1.937991e+01	0	0
2327188	2.203000e+00	2.310423e+01	3.060004e+01	0	0
2329141	2.203000e+00	2.115165e+01	7.450452e+00	0	0
2331094	2.203000e+00	2.532279e+01	-2.836945e+00	0	0
2333047	2.203000e+00	2.065051e+01	5.236134e+00	0	0
2335000	2.203000e+00	-9.720560e+00	-2.630101e+01	0	0
2336953	2.203000e+00	-3.765170e+01	-1.757791e+01	0	0
2338906	2.203000e+00	-6.454131e+01	2.989035e+00	0	0
2340859	2.203000e+00	-9.560321e+01	-1.102503e+00	0	0
2342813	2.203000e+00	-1.153864e+02	1.309991e+00	0	0
2344766	2.203000e+00	-1.385239e+02	-3.399229e+00	0	0
2346719	2.203000e+00	-1.426378e+02	3.249052e+01	0	0
2348672	2.203000e+00	-1.557188e+02	1.906515e+01	0	0
2350625	2.203000e+00	-1.724732e+02	-5.923032e+00	0	0
2352578	2.203000e+00	-1.830306e+02	6.564602e+00	0	0
2354531	2.203000e+00	-1.947547e+02	-3.223867e+01	0	0
2356484	2.203000e+00	-1.986834e+02	-1.986479e+01	0	0
2358438	2.202387e+00	-2.084324e+02	3.625060e+00	0	0
2360391	2.202000e+00	-2.141964e+02	-2.267817e+00	0	0
2362344	2.202613e+00	-2.187692e+02	1.173582e+00	0	0
2364297	2.202387e+00	-2.319899e+02	-5.396600e+00	0	0
2366250	2.202613e+00	-2.266287e+02	2.748530e+01	0	0
2368203	2.202387e+00	-2.309229e+02	1.706142e+01	0	0
2370156	2.202000e+00	-2.374916e+02	-5.019828e+00	0	0
2372109	2.202000e+00	-2.296593e+02	5.175349e+00	0	0
2374063	2.202000e+00	-2.335026e+02	-2.349320e+01	0	0
2376016	2.202000e+00	-2.475833e+02	-2.506153e+01	0	0
2377969	2.202000e+00	-2.508222e+02	-2.430707e+00	0	0
2379922	2.202000e+00	-2.505816e+02	2.636339e-01	0	0
2381875	2.202000e+00	-2.547975e+02	1.324161e+00	0	0
2383828	2.202000e+00	-2.542843e+02	-3.648710e+00	0	0
2385781	2.202000e+00	-2.611978e+02	2.295623e+01	0	0
2387734	2.202000e+00	-2.575891e+02	1.397020e+01	0	0
2389688	2.202000e+00	-2.481304e+02	-3.871579e+00	0	0
2391641	2.202000e+00	-2.556141e+02	3.303869e+00	0	0
2393594	2.202000e+00	-2.648963e+02	-1.530365e+01	0	0
2395547	2.202000e+00	-2.649222e+02	-3.310734e+01	0	0
2397500	2.202000e+00	-2.725167e+02	-1.033148e+01	0	0
2399453	2.202000e+00	-2.812380e+02	2.103105e+00	0	0
2401406	2.202000e+00	-2.861079e+02	2.486443e-01	0	0
2403359	2.202000e+00	-2.846917e+02	-3.222788e+00	0	0
2405313	2.202000e+00	-2.851353e+02	1.735908e+01	0	0
2407266	2.202000e+00	-2.810748e+02	2.909567e+01	0	0
2409219	2.202000e+00	-2.839797e+02	6.709887e+00	0	0
2411172	2.202000e+00	-2.680958e+02	-8.700208e-01	0	0
2413125	2.202000e+00	-2.574994e+02	-5.434818e+00	0	0
2415078	2.202000e+00	-2.720223e+02	-2.993068e+01	0	0
2417031	2.202000e+00	-2.739000e+02	-2.318809e+01	0	0
2418984	2.202000e+00	-2.786036e+02	-1.582380e+00	0	0
2420938	2.202000e+00	-2.793757e+02	1.908289e+00	0	0
2422891	2.202000e+00	-2.817651e+02	3.540969e+00	0	0
2424844	2.202000e+00	-2.835933e+02	-5.108707e+00	0	0
2426797	2.202000e+00	-3.017214e+02	3.104034e+01	0	0
2428750	2.202000e+00	-3.294459e+02	1.922057e+01	0	0
2430703	2.202000e+00	-3.421768e+02	-5.935451e+00	0	0
2432656	2.202000e+00	-3.328412e+02	6.904492e+00	0	0
2434609	2.202000e+00	-3.170235e+02	-3.192450e+01	0	0
2436563	2.202000e+00	-2.645266e+02	-2.482415e+01	0	0
2438516	2.202000e+00	-1.813017e+02	5.718301e-01	0	0
2440469	2.202000e+00	-9.815322e+01	-1.272868e+00	0	0
2442422	2.202000e+00	4.490363e+00	1.587309e+00	0	0
2444375	2.202000e+00	1.231731e+02	-5.134936e+00	0	0
2446328	2.202000e+00	2.926128e+02	2.769556e+01	0	0
2448281	2.202000e+00	5.474930e+02	1.689027e+01	0	0
2450234	2.202000e+00	8.058316e+02	-4.995668e+00	0	0
2452188	2.202000e+00	1.042902e+03	5.224880e+00	0	0
2454141	2.202000e+00	1.281128e+03	-2.311566e+01	0	0
2456094	2.202000e+00	1.517860e+03	-2.241490e+01	0	0
2458047	2.202000e+00	1.632398e+03	-1.268353e+00	0	0
2460000	2.202000e+00	1.564358e+03	-7.561897e-02	0	0
2461953	2.202000e+00	1.405223e+03	9.749354e-01	0	0
2463906	2.202000e+00	1.089675e+03	-3.824113e+00	0	0
2465859	2.202000e+00	8.410189e+02	2.095936e+01	0	0
2467813	2.202000e+00	6.525296e+02	1.272168e+01	0	0
2469766	2.202000e+00	4.906894e+02	-3.736541e+00	0	0
2471719	2.202000e+00	3.380411e+02	3.796349e+00	0	0
2473672	2.202000e+00	5.644681e+01	-1.787533e+01	0	0
2475625	2.202000e+00	-1.667256e+02	-2.642413e+01	0	0
2477578	2.202000e+00	-2.876604e+02	-5.408880e+00	0	0
2479531	2.202000e+00	-3.641690e+02	1.714737e+00	0	0
2481484	2.202000e+00	-4.076396e+02	1.557455e+00	0	0
2483438	2.202000e+00	-4.134988e+02	-1.842473e+00	0	0
2485391	2.202000e+00	-3.867691e+02	1.982506e+01	0	0
2487344	2.202000e+00	-3.592663e+02	2.372053e+01	0	0
2489297	2.202000e+00	-3.165036e+02	3.997174e+00	0	0
2491250	2.202000e+00	-2.729070e+02	1.034471e+00	0	0
2493203	2.202000e+00	-2.407424e+02	-8.156133e+00	0	0
2495156	2.202000e+00	-2.261662e+02	-2.706689e+01	0	0
2497109	2.202000e+00	-2.233144e+02	-2.146097e+01	0	0
2499063	2.202000e+00	-2.062051e+02	-3.542978e+00	0	0
2501016	2.202000e+00	-2.169142e+02	1.067780e+00	0	0
2502969	2.202000e+00	-2.355873e+02	-1.481305e+00	0	0
2504922	2.202000e+00	-2.408749e+02	9.268224e+00	0	0
2506875	2.202000e+00	-2.284657e+02	3.365085e+01	0	0
2508828	2.202000e+00	-2.313947e+02	1.277222e+01	0	0
2510781	2.202000e+00	-2.353486e+02	-6.005465e+00	0	0
2512734	2.202000e+00	-2.329651e+02	3.547944e+00	0	0
2514688	2.202000e+00	-2.398951e+02	-2.962933e+01	0	0
2516641	2.202000e+00	-2.426032e+02	-1.830708e+01	0	0
2518594	2.202000e+00	-2.401290e+02	1.425559e+00	0	0
2520547	2.202000e+00	-2.483911e+02	-3.547082e+00	0	0
2522500	2.202000e+00	-2.465725e+02	-3.838339e-01	0	0
2524453	2.202000e+00	-2.505828e+02	-6.621060e+00	0	0
2526406	2.202000e+00	-2.560329e+02	2.554888e+01	0	0
2528359	2.202000e+00	-2.497299e+02	1.524496e+01	0	0
2530313	2.202000e+00	-2.436972e+02	-5.420270e+00	0	0
2532266	2.202000e+00	-2.363196e+02	5.630105e+00	0	0
2534219	2.202000e+00	-2.416146e+02	-2.462367e+01	0	0
2536172	2.202000e+00	-2.498800e+02	-2.393221e+01	0	0
2538125	2.202000e+00	-2.527298e+02	-1.342978e+00	0	0
2540078	2.202000e+00	-2.468781e+02	-1.231957e-01	0	0
2542031	2.202000e+00	-2.428821e+02	1.212555e+00	0	0
2543984	2.202000e+00	-2.376166e+02	-4.727011e+00	0	0
2545938	2.202000e+00	-2.279738e+02	2.606496e+01	0	0
2547891	2.202000e+00	-2.378565e+02	1.557146e+01	0	0
2549844	2.202000e+00	-2.400028e+02	-4.657408e+00	0	0
2551797	2.202000e+00	-2.245093e+02	4.946048e+00	0	0
2553750	2.202000e+00	-2.305182e+02	-2.322436e+01	0	0
2555703	2.202000e+00	-2.413628e+02	-2.748133e+01	0	0
2557656	2.202000e+00	-2.352858e+02	-4.591349e+00	0	0
2559609	2.202000e+00	-2.406865e+02	-4.720244e-01	0	0
2561563	2.202000e+00	-2.441743e+02	4.157581e-01	0	0
2563516	2.202000e+00	-2.379927e+02	-3.302580e+00	0	0
2565469	2.202000e+00	-2.303581e+02	2.498249e+01	0	0
2567422	2.202000e+00	-2.178233e+02	2.079921e+01	0	0
2569375	2.202000e+00	-2.061780e+02	9.001508e-01	0	0
2571328	2.202000e+00	-1.972189e+02	5.437172e+00	0	0
2573281	2.202000e+00	-2.011288e+02	-1.515976e+01	0	0
2575234	2.202000e+00	-2.092191e+02	-3.189628e+01	0	0
2577188	2.202000e+00	-2.052596e+02	-2.358911e+01	0	0
2579141	2.202000e+00	-2.038198e+02	-2.337129e+00	0	0
2581094	2.202000e+00	-2.183049e+02	3.492679e+00	0	0
2583047	2.202000e+00	-2.134275e+02	1.457956e+00	0	0
2585000	2.202000e+00	-1.991748e+02	-5.182026e+00	0	0
2586953	2.202000e+00	-1.907015e+02	2.858427e+01	0	0
2588906	2.202000e+00	-1.831331e+02	1.696243e+01	0	0
2590859	2.202000e+00	-1.757889e+02	-5.112464e+00	0	0
2592813	2.202000e+00	-1.774150e+02	5.122392e+00	0	0
2594766	2.202000e+00	-1.753345e+02	-3.097836e+01	0	0
2596719	2.202000e+00	-1.768854e+02	-2.523165e+01	0	0
2598672	2.202000e+00	-1.752601e+02	-2.683625e-01	0	0
2600625	2.202000e+00	-1.864645e+02	-1.337478e+00	0	0
2602578	2.202000e+00	-1.902214e+02	1.757680e-01	0	0
2604531	2.202000e+00	-1.820478e+02	-6.432212e+00	0	0
2606484	2.202000e+00	-1.720230e+02	2.662977e+01	0	0
2608438	2.202000e+00	-1.719834e+02	1.548994e+01	0	0
2610391	2.202000e+00	-1.720231e+02	-5.527635e+00	0	0
2612344	2.202000e+00	-1.622021e+02	5.679182e+00	0	0
2614297	2.202000e+00	-1.549987e+02	-2.639232e+01	0	0
2616250	2.202000e+00	-1.570519e+02	-1.719133e+01	0	0
2618203	2.202000e+00	-1.630977e+02	2.531107e+00	0	0
2620156	2.202000e+00	-1.563093e+02	-1.015469e+00	0	0
2622109	2.202000e+00	-1.528919e+02	1.393226e+00	0	0
2624063	2.202000e+00	-1.447077e+02	-4.557275e+00	0	0
2626016	2.202000e+00	-1.374048e+02	2.493136e+01	0	0
2627969	2.202000e+00	-1.278822e+02	1.462596e+01	0	0
2629922	2.202000e+00	-1.181747e+02	-4.364321e+00	0	0
2631875	2.202000e+00	-1.087057e+02	4.574646e+00	0	0
2633828	2.202000e+00	-1.027794e+02	-2.179462e+01	0	0
2635781	2.202000e+00	-9.413416e+01	-2.877573e+01	0	0
2637734	2.202000e+00	-9.254851e+01	-5.070394e+00	0	0
2639688	2.202000e+00	-9.896963e+01	9.101800e-01	0	0
2641641	2.202000e+00	-9.901149e+01	8.318586e-01	0	0
2643594	2.202000e+00	-1.001087e+02	-4.190410e+00	0	0
2645547	2.202000e+00	-8.894838e+01	2.361683e+01	0	0
2647500	2.202000e+00	-6.919979e+01	1.366313e+01	0	0
2649453	2.202000e+00	-5.518951e+01	-3.567094e+00	0	0
2651406	2.202000e+00	-4.509572e+01	2.244210e+00	0	0
2653359	2.202000e+00	-3.646520e+01	-9.826343e+00	0	0
2655313	2.202000e+00	-3.083950e+01	-3.031540e+01	0	0
2657266	2.202000e+00	-2.963437e+01	-1.736765e+01	0	0
2659219	2.202000e+00	-2.257840e+01	-7.295248e-01	0	0
2661172	2.202000e+00	-2.299609e+01	6.203724e-01	0	0
2663125	2.202000e+00	-1.565788e+01	-2.145903e+00	0	0
2665078	2.202627e+00	-2.903414e+00	1.402859e+01	0	0
2667031	2.202373e+00	1.426799e+01	3.616223e+01	0	0
2668984	2.202627e+00	3.228143e+01	1.256381e+01	0	0
2670938	2.202373e+00	4.876399e+01	-4.615494e+00	0	0
2672891	2.202627e+00	7.196573e+01	4.388778e+00	0	0
2674844	2.203000e+00	7.481299e+01	-2.692261e+01	0	0
2676797	2.202373e+00	6.681702e+01	-1.772132e+01	0	0
2678750	2.202627e+00	7.992302e+01	2.239894e+00	0	0
2680703	2.203000e+00	8.568141e+01	-9.761281e-01	0	0
2682656	2.203000e+00	9.253698e+01	1.493062e+00	0	0
2684609	2.203000e+00	9.932194e+01	-4.996148e+00	0	0
2686563	2.203000e+00	1.097518e+02	2.751439e+01	0	0
2688516	2.203000e+00	1.254504e+02	1.599997e+01	0	0
2690469	2.202372e+00	1.377155e+02	-4.984451e+00	0	0
2692422	2.202628e+00	1.530617e+02	5.811292e+00	0	0
2694375	2.203000e+00	1.592972e+02	-2.723093e+01	0	0
2696328	2.203000e+00	1.612736e+02	-1.799635e+01	0	0
2698281	2.203000e+00	1.689160e+02	2.326708e+00	0	0
2700234	2.203000e+00	1.713255e+02	-9.816921e-01	0	0
2702188	2.203000e+00	1.831131e+02	1.431009e+00	0	0
2704141	2.203000e+00	2.004777e+02	-4.743199e+00	0	0
2706094	2.203000e+00	1.966790e+02	2.612574e+01	0	0
2708047	2.203000e+00	2.038159e+02	1.506442e+01	0	0
2710000	2.203000e+00	2.180040e+02	-4.479358e+00	0	0
2711953	2.203000e+00	2.284409e+02	4.617587e+00	0	0
2713906	2.203000e+00	2.240102e+02	-2.216023e+01	0	0
2715859	2.203000e+00	2.146086e+02	-3.066310e+01	0	0
2717813	2.203000e+00	1.988699e+02	-6.012434e+00	0	0
2719766	2.203000e+00	1.916954e+02	1.065329e+00	0	0
2721719	2.203000e+00	1.804164e+02	6.362884e-01	0	0
2723672	2.203000e+00	1.536947e+02	-3.610394e+00	0	0
2725625	2.203000e+00	1.344680e+02	2.143642e+01	0	0
2727578	2.203000e+00	1.219916e+02	2.274448e+01	0	0
2729531	2.203000e+00	1.139037e+02	1.377842e+00	0	0
2731484	2.203000e+00	9.573927e+01	2.723558e+00	0	0
2733438	2.203000e+00	7.308243e+01	-1.920267e+01	0	0
2735391	2.203000e+00	4.416085e+01	-3.385848e+01	0	0
2737344	2.203000e+00	8.383866e+00	-1.681121e+01	0	0
2739297	2.203000e+00	-1.616049e+01	-2.225556e+00	0	0
2741250	2.203000e+00	-4.901314e+01	1.127847e+00	0	0
2743203	2.203000e+00	-8.096522e+01	-2.778942e+00	0	0
2745156	2.203000e+00	-1.005347e+02	1.698650e+01	0	0
2747109	2.203000e+00	-1.251913e+02	3.580054e+01	0	0
2749063	2.203000e+00	-1.443717e+02	1.093414e+01	0	0
2751016	2.203000e+00	-1.547067e+02	-3.592052e+00	0	0
2752969	2.203000e+00	-1.704960e+02	5.018492e+00	0	0
2754922	2.203000e+00	-1.872011e+02	-2.497314e+01	0	0
2756875	2.203631e+00	-2.038896e+02	-1.944302e+01	0	0
2758828	2.204000e+00	-2.244104e+02	6.500030e-01	0	0
2760781	2.204000e+00	-2.416715e+02	-6.045029e-01	0	0
2762734	2.204000e+00	-2.498051e+02	1.433657e+00	0	0
2764688	2.204000e+00	-2.545829e+02	-5.129771e+00	0	0
2766641	2.204000e+00	-2.613156e+02	2.857042e+01	0	0
2768594	2.204000e+00	-2.612470e+02	1.635553e+01	0	0
2770547	2.204000e+00	-2.599122e+02	-5.141890e+00	0	0
2772500	2.204000e+00	-2.628084e+02	6.091468e+00	0	0
2774453	2.204000e+00	-2.681954e+02	-2.860492e+01	0	0
2776406	2.204000e+00	-2.784398e+02	-1.575265e+01	0	0
2778359	2.204000e+00	-2.917645e+02	3.798914e+00	0	0
2780313	2.204000e+00	-2.971029e+02	-1.298040e+00	0	0
2782266	2.204000e+00	-2.985818e+02	1.398228e+00	0	0
2784219	2.204000e+00	-3.006462e+02	-4.294918e+00	0	0
2786172	2.204000e+00	-3.003094e+02	2.363630e+01	0	0
2788125	2.204000e+00	-2.864589e+02	1.338504e+01	0	0
2790078	2.204000e+00	-2.870389e+02	-3.959575e+00	0	0
2792031	2.204000e+00	-3.066029e+02	3.994304e+00	0	0
2793984	2.204000e+00	-3.063082e+02	-1.891563e+01	0	0
2795938	2.204000e+00	-3.031835e+02	-2.316721e+01	0	0
2797891	2.204000e+00	-3.086735e+02	-3.695748e+00	0	0
2799844	2.204000e+00	-3.130851e+02	5.653313e-01	0	0
2801797	2.204000e+00	-3.181834e+02	6.791885e-01	0	0
2803750	2.204000e+00	-3.188808e+02	-3.282025e+00	0	0
2805703	2.204000e+00	-3.175934e+02	1.879663e+01	0	0
2807656	2.204000e+00	-3.162559e+02	1.207558e+01	0	0
2809609	2.204000e+00	-3.116424e+02	-1.994799e+00	0	0
2811563	2.204000e+00	-3.050387e+02	1.526955e+00	0	0
2813516	2.204000e+00	-3.021457e+02	-7.611150e+00	0	0
2815469	2.204000e+00	-3.105087e+02	-2.474819e+01	0	0
2817422	2.204634e+00	-3.134844e+02	-1.461257e+01	0	0
2819375	2.204366e+00	-3.114890e+02	-8.429318e-01	0	0
2821328	2.204634e+00	-3.148829e+02	8.314436e-01	0	0
2823281	2.205000e+00	-3.177847e+02	-2.813943e+00	0	0
2825234	2.205000e+00	-3.119511e+02	1.780276e+01	0	0
2827188	2.205000e+00	-3.054177e+02	3.651618e+01	0	0
2829141	2.205000e+00	-3.062547e+02	1.086308e+01	0	0
2831094	2.205000e+00	-3.079282e+02	-3.580814e+00	0	0
2833047	2.205000e+00	-2.990332e+02	5.016862e+00	0	0
2835000	2.205000e+00	-2.994752e+02	-2.594989e+01	0	0
2836953	2.205000e+00	-3.072255e+02	-2.979925e+01	0	0
2838906	2.205000e+00	-3.076852e+02	-4.046016e+00	0	0
2840859	2.205000e+00	-3.053098e+02	4.804360e-01	0	0
2842813	2.205000e+00	-3.056161e+02	1.218031e+00	0	0
2844766	2.205000e+00	-3.057656e+02	-5.171249e+00	0	0
2846719	2.205000e+00	-3.021831e+02	3.271471e+01	0	0
2848672	2.205000e+00	-3.011323e+02	1.818285e+01	0	0
2850625	2.205000e+00	-2.951394e+02	-5.691341e+00	0	0
2852578	2.205000e+00	-2.881946e+02	6.642837e+00	0	0
2854531	2.205000e+00	-2.843699e+02	-3.127492e+01	0	0
2856484	2.205000e+00	-2.854917e+02	-1.731005e+01	0	0
2858438	2.205000e+00	-2.866874e+02	3.257279e+00	0	0
2860391	2.205000e+00	-2.956582e+02	-3.277468e+00	0	0
2862344	2.205636e+00	-2.979946e+02	-8.089160e-01	0	0
2864297	2.206000e+00	-2.914237e+02	-5.651930e+00	0	0
2866250	2.205364e+00	-2.873849e+02	2.520387e+01	0	0
2868203	2.205636e+00	-2.777637e+02	1.411892e+01	0	0
2870156	2.206000e+00	-2.603465e+02	-4.220434e+00	0	0
2872109	2.206000e+00	-2.607941e+02	4.355728e+00	0	0
2874063	2.206000e+00	-2.629706e+02	-2.120637e+01	0	0
2876016	2.206000e+00	-2.634073e+02	-2.880604e+01	0	0
2877969	2.206000e+00	-2.665027e+02	-5.407707e+00	0	0
2879922	2.206000e+00	-2.775506e+02	1.415789e+00	0	0
2881875	2.206000e+00	-2.835734e+02	1.511010e+00	0	0
2883828	2.206000e+00	-2.801976e+02	-3.469909e+00	0	0
2885781	2.206000e+00	-2.688019e+02	2.348245e+01	0	0
2887734	2.206000e+00	-2.679717e+02	1.472902e+01	0	0
2889688	2.206000e+00	-2.738408e+02	-3.074129e+00	0	0
2891641	2.206000e+00	-2.561810e+02	3.898004e+00	0	0
2893594	2.206000e+00	-2.510889e+02	-2.059076e+01	0	0
2895547	2.206000e+00	-2.676492e+02	-3.486869e+01	0	0
2897500	2.206000e+00	-2.689210e+02	-1.253259e+01	0	0
2899453	2.206000e+00	-2.673059e+02	2.993071e-01	0	0
2901406	2.206000e+00	-2.706674e+02	1.800747e+00	0	0
2903359	2.206000e+00	-2.663450e+02	-2.274602e+00	0	0
2905313	2.206000e+00	-2.682351e+02	2.365499e+01	0	0
2907266	2.206638e+00	-2.607367e+02	3.935689e+01	0	0
2909219	2.207000e+00	-2.586359e+02	1.139107e+01	0	0
2911172	2.207000e+00	-2.510786e+02	-2.013569e+00	0	0
2913125	2.207000e+00	-2.457618e+02	6.415726e+00	0	0
2915078	2.207000e+00	-2.540051e+02	-2.841590e+01	0	0
2917031	2.207000e+00	-2.633772e+02	-2.462692e+01	0	0
2918984	2.207000e+00	-2.581653e+02	-6.083662e-01	0	0
2920938	2.207000e+00	-2.569466e+02	-1.296271e-01	0	0
2922891	2.207000e+00	-2.597016e+02	2.719315e+00	0	0
2924844	2.207000e+00	-2.612572e+02	-4.519403e+00	0	0
2926797	2.207000e+00	-2.550937e+02	3.442781e+01	0	0
2928750	2.207000e+00	-2.516957e+02	1.873422e+01	0	0
2930703	2.207000e+00	-2.503648e+02	-5.921032e+00	0	0
2932656	2.207000e+00	-2.510423e+02	6.447141e+00	0	0
2934609	2.207000e+00	-2.505536e+02	-3.493100e+01	0	0
2936563	2.207000e+00	-2.533853e+02	-2.065262e+01	0	0
2938516	2.207000e+00	-2.648511e+02	-2.410560e-01	0	0
2940469	2.207000e+00	-2.635032e+02	-6.341579e+00	0	0
2942422	2.207000e+00	-2.619866e+02	-1.485905e+00	0	0
2944375	2.207640e+00	-2.625177e+02	-6.403805e+00	0	0
2946328	2.208000e+00	-2.648152e+02	2.506559e+01	0	0
2948281	2.208000e+00	-2.613577e+02	1.364573e+01	0	0
2950234	2.208000e+00	-2.567748e+02	-4.709584e+00	0	0
2952188	2.208000e+00	-2.517090e+02	5.717906e+00	0	0
2954141	2.208000e+00	-2.505638e+02	-1.783773e+01	0	0
2956094	2.208000e+00	-2.554636e+02	-2.588475e+01	0	0
2958047	2.208000e+00	-2.502766e+02	-4.260878e+00	0	0
2960000	2.208000e+00	-2.530355e+02	1.135072e+00	0	0
2961953	2.208000e+00	-2.503615e+02	6.599630e-01	0	0
2963906	2.208000e+00	-2.467157e+02	-3.738873e+00	0	0
2965859	2.208000e+00	-2.510801e+02	2.173085e+01	0	0
2967813	2.208000e+00	-2.370395e+02	1.186231e+01	0	0
2969766	2.208000e+00	-2.392185e+02	-3.561990e+00	0	0
2971719	2.208000e+00	-2.363796e+02	3.689412e+00	0	0
2973672	2.208000e+00	-2.348422e+02	-1.862288e+01	0	0
2975625	2.208000e+00	-2.320124e+02	-3.026742e+01	0	0
2977578	2.208642e+00	-2.150759e+02	-6.271236e+00	0	0
2979531	2.209000e+00	-1.933426e+02	3.027394e+00	0	0
2981484	2.209000e+00	-1.743880e+02	2.378555e+00	0	0
2983438	2.209000e+00	-1.584502e+02	-1.039010e+00	0	0
2985391	2.209000e+00	-1.445173e+02	2.284771e+01	0	0
2987344	2.209000e+00	-1.350446e+02	3.159302e+01	0	0
2989297	2.209000e+00	-1.153033e+02	8.169170e+00	0	0
2991250	2.209000e+00	-1.052750e+02	5.496653e-01	0	0
2993203	2.209000e+00	-1.037826e+02	2.135842e-01	0	0
2995156	2.209000e+00	-1.003780e+02	-2.605220e+01	0	0
2997109	2.209000e+00	-9.481631e+01	-2.855527e+01	0	0
2999063	2.209000e+00	-8.794738e+01	-4.893446e+00	0	0
3001016	2.209000e+00	-7.749300e+01	7.171307e-01	0	0
3002969	2.209000e+00	-7.245657e+01	1.124147e+00	0	0
3004922	2.209000e+00	-6.304723e+01	-5.213560e+00	0	0
3006875	2.209643e+00	-5.242648e+01	3.011689e+01	0	0
3008828	2.210000e+00	-5.063103e+01	1.637422e+01	0	0
3010781	2.210000e+00	-3.314245e+01	-5.228747e+00	0	0
3012734	2.210000e+00	-1.318247e+01	6.314020e+00	0	0
3014688	2.210000e+00	-1.372304e+01	-3.038793e+01	0	0
3016641	2.210000e+00	9.172177e-01	-1.576254e+01	0	0
3018594	2.210000e+00	1.366040e+01	3.431919e+00	0	0
3020547	2.210000e+00	-2.833086e+00	-2.436745e+00	0	0
3022500	2.210000e+00	-4.041993e+00	-2.904190e-02	0	0
3024453	2.210000e+00	-7.610995e+00	-6.613694e+00	0	0
3026406	2.210000e+00	-1.884901e+01	2.460621e+01	0	0
3028359	2.210000e+00	-1.638805e+01	1.226332e+01	0	0
3030313	2.210000e+00	-8.016255e+00	-6.429543e+00	0	0
3032266	2.210000e+00	-7.138542e+00	3.153282e+00	0	0
3034219	2.210645e+00	-1.990129e+01	-2.552741e+01	0	0
3036172	2.211000e+00	-2.650176e+01	-2.171270e+01	0	0
3038125	2.211000e+00	-3.588068e+01	-1.286518e+00	0	0
3040078	2.211000e+00	-5.155668e+01	-2.986083e-01	0	0
3042031	2.211000e+00	-7.922224e+01	1.139938e+00	0	0
3043984	2.211000e+00	-1.094567e+02	-4.277928e+00	0	0
3045938	2.211000e+00	-1.200487e+02	2.445516e+01	0	0
3047891	2.211000e+00	-1.415101e+02	1.305999e+01	0	0
3049844	2.211000e+00	-1.591563e+02	-3.946637e+00	0	0
3051797	2.211000e+00	-1.725370e+02	4.131639e+00	0	0
3053750	2.211000e+00	-1.892950e+02	-2.105932e+01	0	0
3055703	2.211000e+00	-1.998241e+02	-3.355288e+01	0	0
3057656	2.211000e+00	-2.195839e+02	-7.754244e+00	0	0
3059609	2.211646e+00	-2.334069e+02	1.505479e+00	0	0
3061563	2.212000e+00	-2.409888e+02	6.146436e-01	0	0
3063516	2.212000e+00	-2.492810e+02	-2.843540e+00	0	0
3065469	2.212000e+00	-2.518575e+02	2.326911e+01	0	0
3067422	2.212000e+00	-2.617378e+02	3.085751e+01	0	0
3069375	2.212000e+00	-2.606244e+02	6.588770e+00	0	0
3071328	2.212000e+00	-2.484424e+02	2.172532e+00	0	0
3073281	2.212000e+00	-2.502136e+02	-1.062930e+01	0	0
3075234	2.212000e+00	-2.558256e+02	-3.348953e+01	0	0
3077188	2.212000e+00	-2.688518e+02	-2.096565e+01	0	0
3079141	2.212000e+00	-2.842053e+02	-1.923083e+00	0	0
3081094	2.212000e+00	-2.908590e+02	3.556892e-01	0	0
3083047	2.212000e+00	-3.015548e+02	-1.114462e-02	0	0
3085000	2.212647e+00	-2.995096e+02	2.258383e+00	0	0
3086953	2.213000e+00	-2.826656e+02	3.336042e+01	0	0
3088906	2.212353e+00	-2.860758e+02	1.485402e+01	0	0
3090859	2.212648e+00	-2.825278e+02	-5.039358e+00	0	0
3092813	2.213000e+00	-2.835549e+02	5.050072e+00	0	0
3094766	2.213000e+00	-2.914241e+02	-3.105960e+01	0	0
3096719	2.213000e+00	-2.892620e+02	-1.697730e+01	0	0
3098672	2.213000e+00	-3.021210e+02	1.551320e+00	0	0
3100625	2.213000e+00	-3.125399e+02	-3.126411e+00	0	0
3102578	2.213000e+00	-3.073814e+02	-4.900537e-02	0	0
3104531	2.213000e+00	-3.079771e+02	-5.314821e+00	0	0
3106484	2.213000e+00	-3.008593e+02	2.388583e+01	0	0
3108438	2.213000e+00	-2.942174e+02	1.277396e+01	0	0
3110391	2.213000e+00	-3.014201e+02	-3.994534e+00	0	0
3112344	2.213649e+00	-2.957677e+02	4.699656e+00	0	0
3114297	2.214000e+00	-2.979789e+02	-2.059388e+01	0	0
3116250	2.214000e+00	-2.966375e+02	-1.923120e+01	0	0
3118203	2.214000e+00	-2.957198e+02	-1.289696e+00	0	0
3120156	2.214000e+00	-3.045190e+02	-2.134750e-02	0	0
3122109	2.214000e+00	-3.028008e+02	9.378050e-01	0	0
3124063	2.214000e+00	-2.998519e+02	-3.729197e+00	0	0
3126016	2.214000e+00	-2.886440e+02	2.155345e+01	0	0
3127969	2.214000e+00	-2.817055e+02	1.119817e+01	0	0
3129922	2.214000e+00	-2.820240e+02	-2.937635e+00	0	0
3131875	2.214000e+00	-2.829082e+02	4.413912e+00	0	0
3133828	2.214000e+00	-3.133585e+02	-1.543406e+01	0	0
3135781	2.214650e+00	-3.578996e+02	-3.027139e+01	0	0
3137734	2.215000e+00	-3.791027e+02	-6.279604e+00	0	0
3139688	2.215000e+00	-3.792988e+02	4.206709e+00	0	0
3141641	2.215000e+00	-3.643694e+02	2.979633e+00	0	0
3143594	2.215000e+00	-2.978685e+02	-1.423013e-01	0	0
3145547	2.215000e+00	-2.152367e+02	2.256635e+01	0	0
3147500	2.215000e+00	-1.290692e+02	3.292660e+01	0	0
3149453	2.215000e+00	-1.067731e+01	8.683176e+00	0	0
3151406	2.215000e+00	1.238976e+02	2.570427e+00	0	0
3153359	2.215000e+00	3.207860e+02	-9.529610e+00	0	0
3155313	2.215651e+00	5.837395e+02	-3.226677e+01	0	0
3157266	2.216000e+00	8.281720e+02	-1.361955e+01	0	0
3159219	2.216000e+00	1.078125e+03	1.999469e+00	0	0
3161172	2.216000e+00	1.343495e+03	1.314467e-01	0	0
3163125	2.216000e+00	1.572767e+03	1.220340e+00	0	0
3165078	2.216000e+00	1.700371e+03	-3.165441e+00	0	0
3167031	2.216000e+00	1.646006e+03	3.196263e+01	0	0
3168984	2.216000e+00	1.480198e+03	1.583751e+01	0	0
3170938	2.216000e+00	1.170482e+03	-5.148731e+00	0	0
3172891	2.216000e+00	9.047777e+02	6.445655e+00	0	0
3174844	2.216652e+00	6.876578e+02	-3.179805e+01	0	0
3176797	2.217000e+00	4.863693e+02	-1.617992e+01	0	0
3178750	2.217000e+00	3.057276e+02	2.701473e+00	0	0
3180703	2.217000e+00	-2.353238e+01	-3.467354e+00	0	0
3182656	2.217000e+00	-2.669967e+02	-9.043188e-01	0	0
3184609	2.217000e+00	-3.522616e+02	-7.401473e+00	0	0
3186563	2.217000e+00	-4.022169e+02	2.606397e+01	0	0
3188516	2.217000e+00	-4.090093e+02	1.308386e+01	0	0
3190469	2.217000e+00	-3.672174e+02	-4.959184e+00	0	0
3192422	2.217000e+00	-3.382880e+02	5.113878e+00	0	0
3194375	2.217000e+00	-3.228561e+02	-2.460411e+01	0	0
3196328	2.217653e+00	-2.843074e+02	-1.407766e+01	0	0
3198281	2.218000e+00	-2.533884e+02	2.175623e+00	0	0
3200234	2.218000e+00	-2.415667e+02	-8.424922e-01	0	0
3202188	2.218000e+00	-2.225209e+02	1.104255e+00	0	0
3204141	2.218000e+00	-2.135298e+02	-3.575418e+00	0	0
3206094	2.218000e+00	-1.989677e+02	2.050009e+01	0	0
3208047	2.218000e+00	-2.033412e+02	1.050654e+01	0	0
3210000	2.218000e+00	-1.995427e+02	-3.177991e+00	0	0
3211953	2.218000e+00	-1.997554e+02	3.287932e+00	0	0
3213906	2.218000e+00	-2.022002e+02	-1.707107e+01	0	0
3215859	2.218654e+00	-2.067333e+02	-2.766984e+01	0	0
3217813	2.219000e+00	-2.091575e+02	-6.379103e+00	0	0
3219766	2.219000e+00	-2.098784e+02	1.366940e+00	0	0
3221719	2.219000e+00	-2.131502e+02	5.994351e-01	0	0
3223672	2.219000e+00	-2.168016e+02	-2.868147e+00	0	0
3225625	2.219000e+00	-2.113275e+02	1.912577e+01	0	0
3227578	2.219000e+00	-2.056010e+02	1.820702e+01	0	0
3229531	2.219000e+00	-2.082754e+02	6.056680e-01	0	0
3231484	2.219000e+00	-1.937704e+02	2.743536e+00	0	0
3233438	2.219656e+00	-1.889666e+02	-1.907357e+01	0	0
3235391	2.220000e+00	-1.961315e+02	-2.823182e+01	0	0
3237344	2.220000e+00	-2.018352e+02	-5.869768e+00	0	0
3239297	2.220000e+00	-1.987744e+02	1.186594e+00	0	0
3241250	2.220000e+00	-2.027195e+02	2.330506e-01	0	0
3243203	2.220000e+00	-1.880351e+02	-2.118624e+00	0	0
3245156	2.220000e+00	-1.928310e+02	1.552970e+01	0	0
3247109	2.220000e+00	-1.873636e+02	3.823435e+01	0	0
3249063	2.220000e+00	-1.678275e+02	1.188622e+01	0	0
3251016	2.220656e+00	-1.684467e+02	-3.907665e+00	0	0
3252969	2.221000e+00	-1.737474e+02	5.194321e+00	0	0
3254922	2.221000e+00	-1.631551e+02	-2.754506e+01	0	0
3256875	2.221000e+00	-1.641140e+02	-2.886491e+01	0	0
3258828	2.221000e+00	-1.656703e+02	-3.366311e+00	0	0
3260781	2.221000e+00	-1.577247e+02	3.708559e-01	0	0
3262734	2.221000e+00	-1.734095e+02	1.158833e+00	0	0
3264688	2.221000e+00	-1.700814e+02	-5.005033e+00	0	0
3266641	2.221000e+00	-1.520523e+02	2.949685e+01	0	0
3268594	2.221657e+00	-1.581431e+02	1.498084e+01	0	0
3270547	2.222000e+00	-1.504622e+02	-4.768737e+00	0	0
3272500	2.222000e+00	-1.433259e+02	5.603294e+00	0	0
3274453	2.222000e+00	-1.428683e+02	-2.753760e+01	0	0
3276406	2.222000e+00	-1.421207e+02	-1.488961e+01	0	0
3278359	2.222000e+00	-1.415823e+02	2.663588e+00	0	0
3280313	2.222000e+00	-1.421254e+02	-9.812045e-01	0	0
3282266	2.222000e+00	-1.400772e+02	1.197444e+00	0	0
3284219	2.222000e+00	-1.386556e+02	-3.808588e+00	0	0
3286172	2.222658e+00	-1.412527e+02	2.196741e+01	0	0
3288125	2.223000e+00	-1.233405e+02	1.103704e+01	0	0
3290078	2.223000e+00	-1.071750e+02	-3.358022e+00	0	0
3292031	2.223000e+00	-1.045781e+02	3.506812e+00	0	0
3293984	2.223000e+00	-1.102544e+02	-1.801451e+01	0	0
3295938	2.223000e+00	-1.052474e+02	-2.481367e+01	0	0
3297891	2.223000e+00	-9.876668e+01	-4.827070e+00	0	0
3299844	2.223000e+00	-1.084849e+02	8.792704e-01	0	0
3301797	2.223659e+00	-1.091740e+02	5.659847e-01	0	0
3303750	2.224000e+00	-9.784716e+01	-3.143040e+00	0	0
3305703	2.224000e+00	-9.227191e+01	1.942632e+01	0	0
3307656	2.224000e+00	-8.600546e+01	1.628245e+01	0	0
3309609	2.224000e+00	-8.394103e+01	-3.292888e-01	0	0
3311563	2.224000e+00	-6.505508e+01	3.074633e+00	0	0
3313516	2.224000e+00	-5.690619e+01	-1.986767e+01	0	0
3315469	2.224000e+00	-5.986253e+01	-2.797698e+01	0	0
3317422	2.224000e+00	-5.471940e+01	-1.461940e+01	0	0
3319375	2.224660e+00	-5.826278e+01	-2.679460e+00	0	0
3321328	2.225000e+00	-5.385834e+01	7.961833e-01	0	0
3323281	2.225000e+00	-4.778936e+01	-8.622909e-01	0	0
3325234	2.225000e+00	-4.351088e+01	7.273525e+00	0	0
3327188	2.225000e+00	-3.605744e+01	3.720131e+01	0	0
3329141	2.225000e+00	-3.109299e+01	1.411493e+01	0	0
3331094	2.225000e+00	-2.092564e+01	-4.609310e+00	0	0
3333047	2.225000e+00	-1.274867e+01	6.018764e+00	0	0
3335000	2.225661e+00	-9.102679e+00	-3.160466e+01	0	0
3336953	2.226000e+00	-3.816214e+00	-3.085655e+01	0	0
3338906	2.226000e+00	4.066555e+00	-2.932799e+00	0	0
3340859	2.226000e+00	2.598728e+00	2.389976e-01	0	0
3342813	2.226000e+00	1.420427e-01	1.413932e+00	0	0
3344766	2.226000e+00	1.460617e+01	-5.762237e+00	0	0
3346719	2.226000e+00	2.283122e+01	3.425474e+01	0	0
3348672	2.226000e+00	4.371543e+01	1.701017e+01	0	0
3350625	2.226000e+00	6.097907e+01	-5.621983e+00	0	0
3352578	2.226000e+00	6.512239e+01	6.308509e+00	0	0
3354531	2.226662e+00	7.195622e+01	-3.268342e+01	0	0
3356484	2.227000e+00	8.383944e+01	-1.584175e+01	0	0
3358438	2.227000e+00	8.736893e+01	3.425948e+00	0	0
3360391	2.227000e+00	9.088665e+01	-1.671377e+00	0	0
3362344	2.227000e+00	1.010126e+02	1.020552e+00	0	0
3364297	2.227000e+00	1.053195e+02	-4.436055e+00	0	0
3366250	2.227662e+00	1.217679e+02	2.409909e+01	0	0
3368203	2.228000e+00	1.443019e+02	1.189702e+01	0	0
3370156	2.228000e+00	1.625529e+02	-3.605504e+00	0	0
3372109	2.228000e+00	1.783593e+02	3.696056e+00	0	0
3374063	2.228000e+00	1.902129e+02	-1.897004e+01	0	0
3376016	2.228000e+00	1.879857e+02	-2.506344e+01	0	0
3377969	2.228000e+00	2.055993e+02	-4.625846e+00	0	0
3379922	2.228663e+00	2.098987e+02	8.297246e-01	0	0
3381875	2.228337e+00	2.115277e+02	5.933585e-01	0	0
3383828	2.228663e+00	2.301488e+02	-3.202985e+00	0	0
3385781	2.229000e+00	2.574690e+02	1.984306e+01	0	0
3387734	2.229000e+00	2.612785e+02	1.549344e+01	0	0
3389688	2.229000e+00	2.799680e+02	-7.369686e-01	0	0
3391641	2.229000e+00	3.060305e+02	3.200593e+00	0	0
3393594	2.229000e+00	3.167245e+02	-2.003619e+01	0	0
3395547	2.229664e+00	3.248460e+02	-2.471169e+01	0	0
3397500	2.230000e+00	3.298226e+02	-4.047738e+00	0	0
3399453	2.230000e+00	3.412922e+02	1.101373e+00	0	0
3401406	2.230000e+00	3.430568e+02	7.066672e-01	0	0
3403359	2.230000e+00	3.558303e+02	-1.301351e+00	0	0
3405313	2.230000e+00	3.625702e+02	1.404063e+01	0	0
3407266	2.230000e+00	3.830047e+02	3.982609e+01	0	0
3409219	2.230000e+00	3.981601e+02	1.291332e+01	0	0
3411172	2.230665e+00	4.054580e+02	-4.447540e+00	0	0
3413125	2.231000e+00	4.056337e+02	6.333028e+00	0	0
3415078	2.231000e+00	4.103810e+02	-3.357967e+01	0	0
3417031	2.231000e+00	4.090303e+02	-2.295229e+01	0	0
3418984	2.231000e+00	4.020091e+02	9.566913e-01	0	0
3420938	2.231000e+00	3.979208e+02	-7.496462e-01	0	0
3422891	2.231666e+00	3.838316e+02	1.735846e+00	0	0
3424844	2.232000e+00	3.672814e+02	-6.193653e+00	0	0
3426797	2.232000e+00	3.558797e+02	3.657742e+01	0	0
3428750	2.232000e+00	3.466559e+02	1.785631e+01	0	0
3430703	2.232000e+00	3.213720e+02	-5.814600e+00	0	0
3432656	2.232000e+00	2.937518e+02	7.118856e+00	0	0
3434609	2.232000e+00	2.629600e+02	-3.574842e+01	0	0
3436563	2.232000e+00	2.351017e+02	-1.671028e+01	0	0
3438516	2.232666e+00	1.982343e+02	3.833367e+00	0	0
3440469	2.233000e+00	1.696046e+02	-3.134083e+00	0	0
3442422	2.233000e+00	1.522922e+02	-1.030853e+00	0	0
3444375	2.233000e+00	1.243053e+02	-6.741526e+00	0	0
3446328	2.233000e+00	9.854217e+01	2.800012e+01	0	0
3448281	2.233000e+00	7.053079e+01	1.340338e+01	0	0
3450234	2.233667e+00	5.289018e+01	-4.768328e+00	0	0
3452188	2.234000e+00	3.548586e+01	4.020045e+00	0	0
3454141	2.234000e+00	8.421758e+00	-2.366593e+01	0	0
3456094	2.234000e+00	-1.539981e+01	-2.603771e+01	0	0
3458047	2.234000e+00	-3.202041e+01	-3.968874e+00	0	0
3460000	2.234000e+00	-5.800193e+01	6.543240e-01	0	0
3461953	2.234000e+00	-7.194840e+01	2.010685e+00	0	0
3463906	2.234667e+00	-9.023501e+01	-1.835597e+00	0	0
3465859	2.235000e+00	-9.733459e+01	2.611528e+01	0	0
3467813	2.235000e+00	-1.109639e+02	1.402539e+01	0	0
3469766	2.235000e+00	-1.146621e+02	-1.051450e+00	0	0
3471719	2.235000e+00	-1.186230e+02	5.375850e+00	0	0
3473672	2.235000e+00	-1.212998e+02	-1.916414e+01	0	0
3475625	2.235000e+00	-1.250613e+02	-3.447935e+01	0	0
3477578	2.235668e+00	-1.468101e+02	-8.295969e+00	0	0
3479531	2.236000e+00	-1.477358e+02	1.710647e+00	0	0
3481484	2.236000e+00	-1.608120e+02	3.831530e-01	0	0
3483438	2.236000e+00	-1.723757e+02	-3.242226e+00	0	0
3485391	2.236000e+00	-1.721124e+02	2.210262e+01	0	0
3487344	2.236000e+00	-1.642030e+02	3.203643e+01	0	0
3489297	2.236669e+00	-1.619689e+02	5.537122e+00	0	0
3491250	2.237000e+00	-1.553540e+02	-4.510270e+00	0	0
3493203	2.237000e+00	-1.559428e+02	4.603922e+00	0	0
3495156	2.237000e+00	-1.611355e+02	-2.758954e+01	0	0
3497109	2.237000e+00	-1.722066e+02	-1.671613e+01	0	0
3499063	2.237000e+00	-1.717903e+02	1.625474e+00	0	0
3501016	2.237000e+00	-1.739099e+02	-8.115503e-01	0	0
3502969	2.237670e+00	-1.863942e+02	1.462092e+00	0	0
3504922	2.238000e+00	-1.895757e+02	-4.955837e+00	0	0
3506875	2.238000e+00	-1.795496e+02	3.080956e+01	0	0
3508828	2.238000e+00	-1.672959e+02	1.470444e+01	0	0
3510781	2.238000e+00	-1.677253e+02	-4.667062e+00	0	0
3512734	2.238000e+00	-1.693065e+02	5.523614e+00	0	0
3514688	2.238671e+00	-1.681503e+02	-2.820799e+01	0	0
3516641	2.239000e+00	-1.813039e+02	-1.820560e+01	0	0
3518594	2.239000e+00	-1.750828e+02	1.022148e+00	0	0
3520547	2.239000e+00	-1.875476e+02	-5.888489e-01	0	0
3522500	2.239000e+00	-1.904992e+02	1.214055e+00	0	0
3524453	2.239000e+00	-1.850616e+02	-3.805120e+00	0	0
3526406	2.239000e+00	-1.929709e+02	2.372266e+01	0	0
3528359	2.239671e+00	-1.819011e+02	1.138954e+01	0	0
3530313	2.240000e+00	-1.831887e+02	-3.106616e+00	0	0
3532266	2.240000e+00	-1.822849e+02	3.979358e+00	0	0
3534219	2.240000e+00	-1.842395e+02	-1.900914e+01	0	0
3536172	2.240000e+00	-1.913063e+02	-2.797866e+01	0	0
3538125	2.240000e+00	-2.014431e+02	-5.367035e+00	0	0
3540078	2.240672e+00	-2.023674e+02	1.567124e+00	0	0
3542031	2.241000e+00	-2.034164e+02	1.172390e+00	0	0
3543984	2.241000e+00	-2.085718e+02	-3.365943e+00	0	0
3545938	2.241000e+00	-2.089275e+02	2.403089e+01	0	0
3547891	2.241000e+00	-2.008089e+02	1.153835e+01	0	0
3549844	2.241000e+00	-1.993764e+02	-3.161925e+00	0	0
3551797	2.241672e+00	-1.873828e+02	4.245719e+00	0	0
3553750	2.242000e+00	-1.799168e+02	-2.168110e+01	0	0
3555703	2.242000e+00	-1.859606e+02	-3.412073e+01	0	0
3557656	2.242000e+00	-1.932337e+02	-7.205736e+00	0	0
3559609	2.242000e+00	-1.931939e+02	1.940729e+00	0	0
3561563	2.242000e+00	-1.996918e+02	1.229684e+00	0	0
3563516	2.242673e+00	-2.035460e+02	-3.204045e+00	0	0
3565469	2.243000e+00	-1.833440e+02	2.652982e+01	0	0
3567422	2.243000e+00	-1.881937e+02	3.269283e+01	0	0
3569375	2.243000e+00	-1.818682e+02	5.789747e+00	0	0
3571328	2.243000e+00	-1.662247e+02	-2.178139e+00	0	0
3573281	2.243000e+00	-1.801056e+02	2.828050e+00	0	0
3575234	2.243000e+00	-1.828128e+02	-3.202716e+01	0	0
3577188	2.243674e+00	-1.905050e+02	-2.589374e+01	0	0
3579141	2.244000e+00	-1.855904e+02	-1.515799e+00	0	0
3581094	2.244000e+00	-1.912773e+02	1.715346e-01	0	0
3583047	2.244000e+00	-1.962937e+02	1.971470e+00	0	0
3585000	2.244000e+00	-1.899362e+02	-5.812632e+00	0	0
3586953	2.244674e+00	-1.780704e+02	3.567880e+01	0	0
3588906	2.245000e+00	-1.652193e+02	1.661439e+01	0	0
3590859	2.245000e+00	-1.614638e+02	-6.326672e+00	0	0
3592813	2.245000e+00	-1.535990e+02	5.407486e+00	0	0
3594766	2.245000e+00	-1.635832e+02	-3.764926e+01	0	0
3596719	2.245000e+00	-1.669180e+02	-1.857679e+01	0	0
3598672	2.245675e+00	-1.666803e+02	1.232379e-01	0	0
3600625	2.246000e+00	-1.608321e+02	-5.864958e+00	0	0
3602578	2.246000e+00	-1.676976e+02	-1.898733e+00	0	0
3604531	2.246000e+00	-1.718882e+02	-7.681223e+00	0	0
3606484	2.246000e+00	-1.732178e+02	2.716506e+01	0	0
3608438	2.246000e+00	-1.709022e+02	1.173476e+01	0	0
3610391	2.246676e+00	-1.678371e+02	-5.616294e+00	0	0
3612344	2.247000e+00	-1.576291e+02	3.791013e+00	0	0
3614297	2.247000e+00	-1.652085e+02	-2.384377e+01	0	0
3616250	2.247000e+00	-1.714708e+02	-2.616047e+01	0	0
3618203	2.247000e+00	-1.705018e+02	-3.661375e+00	0	0
3620156	2.247000e+00	-1.745776e+02	5.576038e-01	0	0
3622109	2.247676e+00	-1.683832e+02	9.445624e-01	0	0
3624063	2.248000e+00	-1.753988e+02	-3.533589e+00	0	0
3626016	2.248000e+00	-1.661482e+02	2.306438e+01	0	0
3627969	2.248000e+00	-1.521464e+02	1.060340e+01	0	0
3629922	2.248000e+00	-1.495481e+02	-3.285869e+00	0	0
3631875	2.248000e+00	-1.596623e+02	3.506097e+00	0	0
3633828	2.248677e+00	-1.648784e+02	-1.935302e+01	0	0
3635781	2.249000e+00	-1.586872e+02	-3.090265e+01	0	0
3637734	2.249000e+00	-1.676252e+02	-1.074473e+01	0	0
3639688	2.249000e+00	-1.764489e+02	1.190461e+00	0	0
3641641	2.249000e+00	-1.724387e+02	2.996106e+00	0	0
3643594	2.249677e+00	-1.595446e+02	-6.009298e-01	0	0
3645547	2.250000e+00	-1.550459e+02	2.299919e+01	0	0
3647500	2.250000e+00	-1.668069e+02	3.016314e+01	0	0
3649453	2.250000e+00	-1.633158e+02	7.245986e+00	0	0
3651406	2.250000e+00	-1.579579e+02	2.612432e+00	0	0
3653359	2.250677e+00	-1.663432e+02	-1.012142e+01	0	0
3655313	2.251000e+00	-1.748907e+02	-2.929897e+01	0	0
3657266	2.251000e+00	-1.674436e+02	-2.537233e+01	0	0
3659219	2.251000e+00	-1.730111e+02	-4.578491e+00	0	0
3661172	2.251000e+00	-1.784673e+02	7.707671e-01	0	0
3663125	2.251000e+00	-1.887067e+02	1.663764e+00	0	0
3665078	2.251678e+00	-1.923178e+02	-3.005438e+00	0	0
3667031	2.252000e+00	-1.961201e+02	2.930076e+01	0	0
3668984	2.252000e+00	-1.817529e+02	1.310171e+01	0	0
3670938	2.252000e+00	-1.655565e+02	-4.967180e+00	0	0
3672891	2.252000e+00	-1.688166e+02	3.718588e+00	0	0
3674844	2.252679e+00	-1.670565e+02	-2.854979e+01	0	0
3676797	2.253000e+00	-1.625997e+02	-1.453238e+01	0	0
3678750	2.253000e+00	-1.655442e+02	-1.879467e+00	0	0
3680703	2.253000e+00	-1.815816e+02	-6.552943e+00	0	0
3682656	2.253000e+00	-1.793095e+02	-3.334943e+00	0	0
3684609	2.253000e+00	-1.773707e+02	-4.432469e+00	0	0
3686563	2.253680e+00	-1.766859e+02	2.020870e+01	0	0
3688516	2.254000e+00	-1.640715e+02	9.058681e+00	0	0
3690469	2.254000e+00	-1.539497e+02	-2.872354e+00	0	0
3692422	2.254000e+00	-1.538847e+02	3.717461e+00	0	0
3694375	2.254000e+00	-1.450101e+02	-1.267487e+01	0	0
3696328	2.254680e+00	-1.445017e+02	-2.074026e+01	0	0
3698281	2.255000e+00	-1.381577e+02	-9.477734e-01	0	0
3700234	2.255000e+00	-1.195722e+02	5.278996e+00	0	0
3702188	2.255000e+00	-7.880482e+01	4.210599e+00	0	0
3704141	2.255000e+00	-5.291693e+01	-2.045779e-01	0	0
3706094	2.255681e+00	-4.237228e+01	2.116036e+01	0	0
3708047	2.256000e+00	-3.555284e+01	1.075930e+01	0	0
3710000	2.256000e+00	-9.452855e+00	-3.875462e-01	0	0
3711953	2.256000e+00	-7.648218e+00	6.140621e+00	0	0
3713906	2.256000e+00	-1.371361e+01	-1.593718e+01	0	0
3715859	2.256000e+00	4.879519e+00	-1.831045e+01	0	0
3717813	2.256681e+00	4.563380e+00	-1.205455e-01	0	0
3719766	2.257000e+00	4.850808e+00	2.992909e+00	0	0
3721719	2.257000e+00	1.364100e+01	1.928120e+00	0	0
3723672	2.257000e+00	2.515533e+01	-2.541552e+00	0	0
3725625	2.257000e+00	3.041058e+01	1.955343e+01	0	0
3727578	2.257682e+00	4.146163e+01	2.996030e+01	0	0
3729531	2.258000e+00	4.618524e+01	5.947970e+00	0	0
3731484	2.258000e+00	5.995653e+01	3.755432e-01	0	0
3733438	2.258000e+00	6.500839e+01	-1.319176e+01	0	0
3735391	2.258000e+00	6.838893e+01	-3.501841e+01	0	0
3737344	2.258682e+00	8.499171e+01	-1.316958e+01	0	0
3739297	2.259000e+00	1.005336e+02	1.805576e+00	0	0
3741250	2.259000e+00	1.003792e+02	1.154517e+00	0	0
3743203	2.259000e+00	9.600154e+01	-7.353157e-01	0	0
3745156	2.259000e+00	9.797458e+01	8.460171e+00	0	0
3747109	2.259000e+00	8.769685e+01	3.991977e+01	0	0
3749063	2.259683e+00	8.414861e+01	1.217181e+01	0	0
3751016	2.260000e+00	8.612659e+01	-7.537767e+00	0	0
3752969	2.260000e+00	6.090827e+01	3.255040e+00	0	0
3754922	2.260000e+00	4.875663e+01	-4.036598e+01	0	0
3756875	2.260683e+00	5.769827e+01	-2.003684e+01	0	0
3758828	2.261000e+00	4.467025e+01	-1.053413e-01	0	0
3760781	2.261000e+00	2.112929e+01	-4.639832e+00	0	0
3762734	2.261000e+00	4.295116e+00	-3.480093e-02	0	0
3764688	2.261000e+00	-1.516672e+01	-6.850691e+00	0	0
3766641	2.261684e+00	-6.751523e+01	3.416416e+01	0	0
3768594	2.262000e+00	-8.442174e+01	1.497322e+01	0	0
3770547	2.262000e+00	-6.452440e+01	-5.313021e+00	0	0
3772500	2.262000e+00	-9.283117e+01	5.771966e+00	0	0
3774453	2.262000e+00	-1.130685e+02	-3.097613e+01	0	0
3776406	2.262684e+00	-1.253976e+02	-2.545577e+01	0	0
3778359	2.263000e+00	-1.392177e+02	-1.143309e+00	0	0
3780313	2.263000e+00	-1.608389e+02	5.523816e-01	0	0
3782266	2.263000e+00	-1.527250e+02	1.830129e+00	0	0
3784219	2.263000e+00	-1.643776e+02	-3.568222e+00	0	0
3786172	2.263685e+00	-1.726238e+02	2.720785e+01	0	0
3788125	2.264000e+00	-1.705442e+02	1.187187e+01	0	0
3790078	2.264000e+00	-1.905480e+02	-3.640244e+00	0	0
3792031	2.264000e+00	-1.810056e+02	3.724849e+00	0	0
3793984	2.264000e+00	-1.956183e+02	-2.094707e+01	0	0
3795938	2.264000e+00	-2.026047e+02	-3.487866e+01	0	0
3797891	2.264686e+00	-1.961160e+02	-7.269594e+00	0	0
3799844	2.265000e+00	-2.106705e+02	2.547540e+00	0	0
3801797	2.265000e+00	-2.194738e+02	1.478624e+00	0	0
3803750	2.265000e+00	-2.128588e+02	-1.937721e+00	0	0
3805703	2.265000e+00	-2.192996e+02	2.330980e+01	0	0
3807656	2.265686e+00	-2.170059e+02	2.758364e+01	0	0
3809609	2.266000e+00	-2.140206e+02	5.146117e+00	0	0
3811563	2.266000e+00	-1.997721e+02	1.143641e+00	0	0
3813516	2.266000e+00	-2.035669e+02	-6.944750e+00	0	0
3815469	2.266686e+00	-2.206726e+02	-2.899463e+01	0	0
3817422	2.267000e+00	-2.291750e+02	-1.892710e+01	0	0
3819375	2.267000e+00	-2.205057e+02	-1.098654e+00	0	0
3821328	2.267000e+00	-2.287699e+02	7.814967e-01	0	0
3823281	2.267000e+00	-2.362131e+02	6.365040e-01	0	0
3825234	2.267687e+00	-2.188097e+02	1.063539e+00	0	0
3827188	2.268000e+00	-2.319771e+02	3.129508e+01	0	0
3829141	2.268000e+00	-2.291423e+02	1.209529e+01	0	0
3831094	2.268000e+00	-2.190428e+02	-3.955544e+00	0	0
3833047	2.268000e+00	-2.236765e+02	4.807923e+00	0	0
3835000	2.268687e+00	-2.328757e+02	-2.687714e+01	0	0
3836953	2.269000e+00	-2.338416e+02	-2.908058e+01	0	0
3838906	2.269000e+00	-2.297939e+02	-3.935473e+00	0	0
3840859	2.269000e+00	-2.293208e+02	5.825850e-01	0	0
3842813	2.269000e+00	-2.320475e+02	9.884975e-01	0	0
3844766	2.269688e+00	-2.205667e+02	-4.534959e+00	0	0
3846719	2.270000e+00	-2.197283e+02	2.845896e+01	0	0
3848672	2.270000e+00	-2.275400e+02	1.244384e+01	0	0
3850625	2.270000e+00	-2.182695e+02	-4.072519e+00	0	0
3852578	2.270000e+00	-2.477246e+02	4.900581e+00	0	0
3854531	2.270688e+00	-2.965278e+02	-2.645308e+01	0	0
3856484	2.271000e+00	-3.082238e+02	-1.986806e+01	0	0
3858438	2.271000e+00	-2.949274e+02	-5.459989e-01	0	0
3860391	2.271000e+00	-2.728231e+02	-2.083728e-01	0	0
3862344	2.271000e+00	-2.049147e+02	1.079578e+00	0	0
3864297	2.271689e+00	-1.292530e+02	-4.109802e+00	0	0
3866250	2.272000e+00	-3.052541e+01	2.552076e+01	0	0
3868203	2.272000e+00	7.520169e+01	1.107475e+01	0	0
3870156	2.272000e+00	2.065161e+02	-3.554943e+00	0	0
3872109	2.272000e+00	4.445553e+02	4.080466e+00	0	0
3874063	2.272690e+00	7.234733e+02	-2.241707e+01	0	0
3876016	2.273000e+00	9.693940e+02	-2.279528e+01	0	0
3877969	2.273000e+00	1.254749e+03	-2.753458e+00	0	0
3879922	2.273000e+00	1.525457e+03	3.907361e-01	0	0
3881875	2.273690e+00	1.746170e+03	7.339425e-01	0	0
3883828	2.274000e+00	1.845276e+03	-3.326326e+00	0	0
3885781	2.274000e+00	1.792124e+03	2.175973e+01	0	0
3887734	2.274000e+00	1.605446e+03	1.764057e+01	0	0
3889688	2.274000e+00	1.249160e+03	1.326076e-02	0	0
3891641	2.274000e+00	9.815119e+02	2.986108e+00	0	0
3893594	2.274691e+00	7.597279e+02	-2.129489e+01	0	0
3895547	2.275000e+00	5.749714e+02	-2.722368e+01	0	0
3897500	2.275000e+00	3.022462e+02	-4.666726e+00	0	0
3899453	2.275691e+00	-9.850296e+01	9.935881e-01	0	0
3901406	2.276000e+00	-3.212929e+02	7.882280e-02	0	0
3903359	2.276000e+00	-3.760495e+02	-1.308704e+00	0	0
3905313	2.276000e+00	-3.599342e+02	1.184547e+01	0	0
3907266	2.276000e+00	-3.140087e+02	3.731109e+01	0	0
3909219	2.276691e+00	-2.845911e+02	1.134938e+01	0	0
3911172	2.277000e+00	-2.570611e+02	-3.962649e+00	0	0
3913125	2.277000e+00	-1.865956e+02	5.583959e+00	0	0
3915078	2.277000e+00	-1.465582e+02	-3.136080e+01	0	0
3917031	2.277000e+00	-1.343638e+02	-2.144053e+01	0	0
3918984	2.277692e+00	-1.159793e+02	7.427375e-02	0	0
3920938	2.278000e+00	-1.219255e+02	-4.841356e-01	0	0
3922891	2.278000e+00	-1.348557e+02	1.408479e+00	0	0
3924844	2.278000e+00	-1.504692e+02	-5.200931e+00	0	0
3926797	2.278000e+00	-1.466381e+02	3.245592e+01	0	0
3928750	2.278000e+00	-1.400093e+02	1.390911e+01	0	0
3930703	2.278692e+00	-1.459418e+02	-4.666184e+00	0	0
3932656	2.279000e+00	-1.514249e+02	5.903437e+00	0	0
3934609	2.279000e+00	-1.414228e+02	-3.150559e+01	0	0
3936563	2.279693e+00	-1.451339e+02	-1.293576e+01	0	0
3938516	2.280000e+00	-1.487001e+02	3.251135e+00	0	0
3940469	2.280000e+00	-1.618510e+02	-1.163493e+00	0	0
3942422	2.280000e+00	-1.647154e+02	1.403338e+00	0	0
3944375	2.280000e+00	-1.559889e+02	-4.449803e+00	0	0
3946328	2.280000e+00	-1.490024e+02	2.746515e+01	0	0
3948281	2.280693e+00	-1.312647e+02	1.154543e+01	0	0
3950234	2.281000e+00	-1.330618e+02	-3.418752e+00	0	0
3952188	2.281000e+00	-1.276625e+02	3.085383e+00	0	0
3954141	2.281000e+00	-1.234499e+02	-1.756943e+01	0	0
3956094	2.281694e+00	-1.383450e+02	-3.406899e+01	0	0
3958047	2.282000e+00	-1.442410e+02	-8.190764e+00	0	0
3960000	2.282000e+00	-1.368652e+02	1.700916e+00	0	0
3961953	2.282000e+00	-1.384147e+02	5.143469e-01	0	0
3963906	2.282694e+00	-1.347753e+02	-3.757772e+00	0	0
3965859	2.283000e+00	-1.332325e+02	2.441279e+01	0	0
3967813	2.283000e+00	-1.267496e+02	1.025061e+01	0	0
3969766	2.283000e+00	-1.194226e+02	-3.126092e+00	0	0
3971719	2.283000e+00	-1.061015e+02	3.093123e+00	0	0
3973672	2.283695e+00	-1.051035e+02	-1.801655e+01	0	0
3975625	2.284000e+00	-1.116882e+02	-3.307424e+01	0	0
3977578	2.284000e+00	-1.202285e+02	-1.053151e+01	0	0
3979531	2.284000e+00	-1.098049e+02	7.019475e-01	0	0
3981484	2.284695e+00	-1.029310e+02	2.128513e-01	0	0
3983438	2.285000e+00	-1.063818e+02	-1.641878e+00	0	0
3985391	2.285000e+00	-1.017688e+02	1.357743e+01	0	0
3987344	2.285000e+00	-7.769481e+01	3.368859e+01	0	0
3989297	2.285000e+00	-8.058047e+01	9.294962e+00	0	0
3991250	2.285000e+00	-8.675063e+01	-3.175365e+00	0	0
3993203	2.285696e+00	-8.068537e+01	4.301838e+00	0	0
3995156	2.286000e+00	-7.597011e+01	-2.556671e+01	0	0
3997109	2.286000e+00	-7.503036e+01	-3.022938e+01	0	0
3999063	2.286000e+00	-7.026075e+01	-4.674919e+00	0	0
4001016	2.286697e+00	-7.514689e+01	7.648261e-01	0	0
4002969	2.287000e+00	-9.292371e+01	9.898023e-01	0	0
4004922	2.287000e+00	-6.627767e+01	-4.723602e+00	0	0
4006875	2.287000e+00	-6.003918e+01	3.029028e+01	0	0
4008828	2.287697e+00	-5.183345e+01	1.268575e+01	0	0
4010781	2.288000e+00	-5.105452e+01	-4.292064e+00	0	0
4012734	2.288000e+00	-3.943151e+01	5.498164e+00	0	0
4014688	2.288000e+00	-3.837887e+01	-2.982881e+01	0	0
4016641	2.288698e+00	-3.507348e+01	-1.264484e+01	0	0
4018594	2.289000e+00	-4.467076e+01	2.754755e+00	0	0
4020547	2.289000e+00	-6.677052e+01	-1.020500e+00	0	0
4022500	2.289000e+00	-4.809447e+01	1.305863e+00	0	0
4024453	2.289000e+00	-5.264012e+01	-4.202873e+00	0	0
4026406	2.289698e+00	-4.654643e+01	2.626016e+01	0	0
4028359	2.290000e+00	-4.312790e+01	1.085518e+01	0	0
4030313	2.290000e+00	-2.905876e+01	-3.487351e+00	0	0
4032266	2.290000e+00	-5.415571e+00	3.979705e+00	0	0
4034219	2.290699e+00	-4.162075e+00	-2.278623e+01	0	0
4036172	2.291000e+00	-1.628609e+01	-2.700338e+01	0	0
4038125	2.291000e+00	-1.586474e+01	-4.217064e+00	0	0
4040078	2.291000e+00	-1.302950e+01	7.151321e-01	0	0
4042031	2.291000e+00	-1.052861e+01	8.049572e-01	0	0
4043984	2.291699e+00	9.156774e+00	-3.934578e+00	0	0
4045938	2.292000e+00	9.676959e+00	2.539193e+01	0	0
4047891	2.292000e+00	1.142493e+01	1.045638e+01	0	0
4049844	2.292000e+00	2.522092e+01	-3.437974e+00	0	0
4051797	2.292000e+00	4.105184e+01	4.121703e+00	0	0
4053750	2.292700e+00	4.398957e+01	-2.373990e+01	0	0
4055703	2.293000e+00	5.296378e+01	-2.654713e+01	0	0
4057656	2.293000e+00	5.835327e+01	-1.060130e+01	0	0
4059609	2.293000e+00	5.948894e+01	-1.712812e+00	0	0
4061563	2.293701e+00	6.146427e+01	1.062563e+00	0	0
4063516	2.294000e+00	7.272739e+01	-2.744107e+00	0	0
4065469	2.294000e+00	7.891238e+01	1.992690e+01	0	0
4067422	2.294000e+00	8.863602e+01	3.761002e+01	0	0
4069375	2.294000e+00	1.143623e+02	9.088989e+00	0	0
4071328	2.294701e+00	1.280077e+02	-3.277488e+00	0	0
4073281	2.295000e+00	1.463668e+02	4.917800e+00	0	0
4075234	2.295000e+00	1.584593e+02	-2.881725e+01	0	0
4077188	2.295000e+00	1.485597e+02	-2.110153e+01	0	0
4079141	2.295702e+00	1.479040e+02	-5.981943e-01	0	0
4081094	2.296000e+00	1.573582e+02	-2.643032e-01	0	0
4083047	2.296000e+00	1.707214e+02	1.365029e+00	0	0
4085000	2.296000e+00	1.853610e+02	-5.195520e+00	0	0
4086953	2.296702e+00	1.919030e+02	3.318502e+01	0	0
4088906	2.297000e+00	2.166959e+02	1.355086e+01	0	0
4090859	2.297000e+00	2.245446e+02	-4.632404e+00	0	0
4092813	2.297000e+00	2.459774e+02	6.027422e+00	0	0
4094766	2.297000e+00	2.764988e+02	-3.312135e+01	0	0
4096719	2.297703e+00	2.842155e+02	-1.293522e+01	0	0
4098672	2.298000e+00	2.926702e+02	3.267728e+00	0	0
4100625	2.298000e+00	3.011677e+02	-1.167766e+00	0	0
4102578	2.298000e+00	3.096907e+02	1.403855e+00	0	0
4104531	2.298703e+00	3.176685e+02	-4.447574e+00	0	0
4106484	2.299000e+00	3.238275e+02	2.804646e+01	0	0
4108438	2.299000e+00	3.491835e+02	1.128146e+01	0	0
4110391	2.299000e+00	3.660252e+02	-3.640032e+00	0	0
4112344	2.299000e+00	3.794901e+02	4.152108e+00	0	0
4114297	2.299704e+00	3.960365e+02	-2.371671e+01	0	0
4116250	2.300000e+00	4.094092e+02	-2.487776e+01	0	0
4118203	2.300000e+00	4.164827e+02	-3.231294e+00	0	0
4120156	2.300000e+00	4.247671e+02	4.823262e-01	0	0
4122109	2.300000e+00	4.355135e+02	8.447240e-01	0	0
4124063	2.300705e+00	4.374285e+02	-3.858902e+00	0	0
4126016	2.301000e+00	4.606684e+02	2.507197e+01	0	0
4127969	2.301000e+00	4.657734e+02	9.983656e+00	0	0
4129922	2.301000e+00	4.809459e+02	-3.042432e+00	0	0
4131875	2.301705e+00	5.006627e+02	2.957421e+00	0	0
4133828	2.302000e+00	5.075839e+02	-1.780550e+01	0	0
4135781	2.302000e+00	4.937098e+02	-3.383640e+01	0	0
4137734	2.302000e+00	4.732678e+02	-7.788262e+00	0	0
4139688	2.302706e+00	4.619797e+02	1.658132e+00	0	0
4141641	2.303000e+00	4.470913e+02	3.650740e-01	0	0
4143594	2.303000e+00	4.257174e+02	-3.117898e+00	0	0
4145547	2.303000e+00	4.119276e+02	2.347201e+01	0	0
4147500	2.303000e+00	3.937138e+02	3.405959e+01	0	0
4149453	2.303706e+00	3.731552e+02	6.855291e+00	0	0
4151406	2.304000e+00	3.507624e+02	-2.710217e+00	0	0
4153359	2.304000e+00	3.162824e+02	4.699581e+00	0	0
4155313	2.304000e+00	2.860015e+02	-2.902379e+01	0	0
4157266	2.304707e+00	2.501800e+02	-2.439682e+01	0	0
4159219	2.305000e+00	2.143685e+02	-1.774721e+00	0	0
4161172	2.305000e+00	1.868942e+02	1.675276e-02	0	0
4163125	2.305000e+00	1.575030e+02	1.333820e+00	0	0
4165078	2.305707e+00	1.393052e+02	-5.351656e+00	0	0
4167031	2.306000e+00	1.042003e+02	3.468376e+01	0	0
4168984	2.306000e+00	7.723570e+01	1.382060e+01	0	0
4170938	2.306000e+00	6.560953e+01	-4.755441e+00	0	0
4172891	2.306708e+00	5.737008e+01	6.264959e+00	0	0
4174844	2.307000e+00	3.409830e+01	-3.489314e+01	0	0
4176797	2.307000e+00	8.622187e+00	-1.328906e+01	0	0
4178750	2.307000e+00	4.015692e-01	3.366568e+00	0	0
4180703	2.307708e+00	-2.626047e+01	-1.206037e+00	0	0
4182656	2.308000e+00	-4.631015e+01	1.458124e+00	0	0
4184609	2.308000e+00	-5.961291e+01	-4.626361e+00	0	0
4186563	2.308000e+00	-5.915876e+01	2.949953e+01	0	0
4188516	2.308000e+00	-6.879047e+01	1.148301e+01	0	0
4190469	2.308709e+00	-6.178095e+01	-3.473152e+00	0	0
4192422	2.309000e+00	-6.223972e+01	3.277519e+00	0	0
4194375	2.309000e+00	-7.353381e+01	-1.933960e+01	0	0
4196328	2.309000e+00	-9.045782e+01	-3.350395e+01	0	0
4198281	2.309709e+00	-9.371746e+01	-7.236501e+00	0	0
4200234	2.310000e+00	-1.044933e+02	1.511691e+00	0	0
4202188	2.310000e+00	-1.110083e+02	4.651411e-01	0	0
4204141	2.310000e+00	-1.188784e+02	-3.368658e+00	0	0
4206094	2.310710e+00	-1.216454e+02	2.262516e+01	0	0
4208047	2.311000e+00	-1.130694e+02	8.850981e+00	0	0
4210000	2.311000e+00	-1.033997e+02	-2.873473e+00	0	0
4211953	2.311000e+00	-9.097155e+01	3.302136e+00	0	0
4213906	2.311000e+00	-1.072980e+02	-1.990613e+01	0	0
4215859	2.311710e+00	-1.084369e+02	-2.690691e+01	0	0
4217813	2.312000e+00	-1.020336e+02	-4.793654e+00	0	0
4219766	2.312000e+00	-1.131249e+02	9.568292e-01	0	0
4221719	2.312000e+00	-1.247352e+02	4.386273e-01	0	0
4223672	2.312000e+00	-1.324865e+02	-2.710954e+00	0	0
4225625	2.312711e+00	-1.202418e+02	2.070820e+01	0	0
4227578	2.313000e+00	-1.223325e+02	3.204845e+01	0	0
4229531	2.313000e+00	-1.260977e+02	6.375229e+00	0	0
4231484	2.313711e+00	-1.264705e+02	-1.529806e+00	0	0
4233438	2.314000e+00	-1.238000e+02	-2.630885e+00	0	0
4235391	2.314000e+00	-1.167995e+02	-3.009858e+01	0	0
4237344	2.314000e+00	-1.247925e+02	-1.732925e+01	0	0
4239297	2.314000e+00	-1.262334e+02	-1.736351e-01	0	0
4241250	2.314712e+00	-1.312071e+02	-3.537841e-01	0	0
4243203	2.315000e+00	-1.422355e+02	1.382497e+00	0	0
4245156	2.315000e+00	-1.367114e+02	-5.175890e+00	0	0
4247109	2.315000e+00	-1.331376e+02	3.374566e+01	0	0
4249063	2.315712e+00	-1.274264e+02	1.304841e+01	0	0
4251016	2.316000e+00	-1.087225e+02	-4.427176e+00	0	0
4252969	2.316000e+00	-1.164322e+02	5.612567e+00	0	0
4254922	2.316000e+00	-1.250531e+02	-3.252139e+01	0	0
4256875	2.316713e+00	-1.298494e+02	-2.331006e+01	0	0
4258828	2.317000e+00	-1.229826e+02	-8.003485e-01	0	0
4260781	2.317000e+00	-1.315510e+02	-2.108897e-01	0	0
4262734	2.317000e+00	-1.400717e+02	1.112316e+00	0	0
4264688	2.317000e+00	-1.614653e+02	-4.461487e+00	0	0
4266641	2.317714e+00	-1.497384e+02	2.893372e+01	0	0
4268594	2.318000e+00	-1.481668e+02	1.106301e+01	0	0
4270547	2.318000e+00	-1.414510e+02	-3.698187e+00	0	0
4272500	2.318000e+00	-1.236738e+02	4.525511e+00	0	0
4274453	2.318714e+00	-1.261204e+02	-2.414787e+01	0	0
4276406	2.319000e+00	-1.261772e+02	-2.627705e+01	0	0
4278359	2.319000e+00	-1.320531e+02	-3.558563e+00	0	0
4280313	2.319000e+00	-1.409195e+02	5.671574e-01	0	0
4282266	2.319000e+00	-1.492768e+02	8.317023e-01	0	0
4284219	2.319715e+00	-1.530021e+02	-3.893557e+00	0	0
4286172	2.320000e+00	-1.402833e+02	2.592237e+01	0	0
4288125	2.320000e+00	-1.383322e+02	9.928072e+00	0	0
4290078	2.320000e+00	-1.336369e+02	-3.413798e+00	0	0
4292031	2.320715e+00	-1.090140e+02	4.440594e+00	0	0
4293984	2.321000e+00	-1.115178e+02	-2.571025e+01	0	0
4295938	2.321000e+00	-1.158791e+02	-1.547539e+01	0	0
4297891	2.321715e+00	-1.236162e+02	1.680676e-01	0	0
4299844	2.322000e+00	-1.370468e+02	-4.338624e-01	0	0
4301797	2.322000e+00	-1.371125e+02	9.776467e-01	0	0
4303750	2.322000e+00	-1.330126e+02	-3.481464e+00	0	0
4305703	2.322000e+00	-1.321990e+02	2.449526e+01	0	0
4307656	2.322000e+00	-1.302708e+02	2.483550e+01	0	0
4309609	2.322716e+00	-1.254073e+02	2.864684e+00	0	0
4311563	2.323000e+00	-1.304199e+02	-2.908414e-02	0	0
4313516	2.323000e+00	-1.223261e+02	-7.184537e+00	0	0
4315469	2.323716e+00	-1.238406e+02	-3.101434e+01	0	0
4317422	2.324000e+00	-1.388892e+02	-2.379560e+01	0	0
4319375	2.324000e+00	-1.307018e+02	-2.695508e+00	0	0
4321328	2.324000e+00	-1.424622e+02	1.232183e+00	0	0
4323281	2.324000e+00	-1.335857e+02	-6.989536e-01	0	0
4325234	2.324717e+00	-1.270740e+02	7.869828e+00	0	0
4327188	2.325000e+00	-1.290055e+02	3.726152e+01	0	0
4329141	2.325000e+00	-1.238774e+02	1.113867e+01	0	0
4331094	2.325000e+00	-1.187368e+02	-3.959101e+00	0	0
4333047	2.325717e+00	-1.136327e+02	5.565769e+00	0	0
4335000	2.326000e+00	-1.142748e+02	-3.280140e+01	0	0
4336953	2.326000e+00	-1.050404e+02	-1.750461e+01	0	0
4338906	2.326000e+00	-1.018232e+02	1.170818e+00	0	0
4340859	2.326000e+00	-1.189435e+02	-6.771510e-01	0	0
4342813	2.326718e+00	-1.178576e+02	1.396323e+00	0	0
4344766	2.327000e+00	-1.211936e+02	-4.908722e+00	0	0
4346719	2.327000e+00	-1.153445e+02	3.233112e+01	0	0
4348672	2.327000e+00	-1.108482e+02	1.209113e+01	0	0
4350625	2.327719e+00	-9.542910e+01	-4.084159e+00	0	0
4352578	2.328000e+00	-1.026451e+02	5.098039e+00	0	0
4354531	2.328000e+00	-1.057429e+02	-2.977564e+01	0	0
4356484	2.328719e+00	-1.154494e+02	-2.065269e+01	0	0
4358438	2.329000e+00	-1.126731e+02	-5.369851e-01	0	0
4360391	2.329000e+00	-1.089818e+02	-1.677075e-01	0	0
4362344	2.329000e+00	-1.243911e+02	1.133934e+00	0	0
4364297	2.329000e+00	-1.252371e+02	-4.163979e+00	0	0
4366250	2.329000e+00	-1.138577e+02	2.796689e+01	0	0
4368203	2.329720e+00	-9.842126e+01	1.039543e+01	0	0
4370156	2.330000e+00	-9.184893e+01	-3.317992e+00	0	0
4372109	2.330000e+00	-9.630777e+01	3.920714e+00	0	0
4374063	2.330000e+00	-1.022242e+02	-2.339085e+01	0	0
4376016	2.330720e+00	-1.052917e+02	-2.746863e+01	0	0
4377969	2.331000e+00	-1.195896e+02	-4.105897e+00	0	0
4379922	2.331000e+00	-1.202461e+02	8.655595e-01	0	0
4381875	2.331000e+00	-1.310829e+02	6.074091e-01	0	0
4383828	2.331000e+00	-1.301209e+02	-2.887312e+00	0	0
4385781	2.331721e+00	-1.373255e+02	2.147076e+01	0	0
4387734	2.332000e+00	-1.126838e+02	2.475637e+01	0	0
4389688	2.332000e+00	-1.133293e+02	3.020780e+00	0	0
4391641	2.332000e+00	-1.102771e+02	1.698894e+00	0	0
4393594	2.332721e+00	-1.041712e+02	-1.686898e+01	0	0
4395547	2.333000e+00	-1.217453e+02	-3.088059e+01	0	0
4397500	2.333000e+00	-1.188511e+02	-2.215709e+01	0	0
4399453	2.333000e+00	-1.276425e+02	-1.862351e+00	0	0
4401406	2.333722e+00	-1.302897e+02	3.223393e+00	0	0
4403359	2.334000e+00	-1.297488e+02	3.547019e+00	0	0
4405313	2.334000e+00	-1.296833e+02	-3.556313e+00	0	0
4407266	2.334000e+00	-1.259563e+02	3.036292e+01	0	0
4409219	2.334000e+00	-1.212956e+02	1.125007e+01	0	0
4411172	2.334722e+00	-1.118648e+02	-3.857024e+00	0	0
4413125	2.335000e+00	-1.154571e+02	5.444377e+00	0	0
4415078	2.335000e+00	-1.171677e+02	-3.147911e+01	0	0
4417031	2.335000e+00	-1.197210e+02	-1.495400e+01	0	0
4418984	2.335000e+00	-1.174572e+02	-1.323048e+00	0	0
4420938	2.335723e+00	-1.290860e+02	-4.354252e+00	0	0
