time	gsr	ecg	emg_trapezius	emg_corrugator	emg_zygomaticus
1250	2.208000e+00	1.128497e+02	-3.719466e+00	0	0
3203	2.208000e+00	8.150317e+01	-1.150193e+01	0	0
5156	2.208000e+00	4.312057e+01	-7.359859e+00	0	0
7109	2.208000e+00	3.057559e+01	-1.246258e+01	0	0
9063	2.208000e+00	1.721069e+01	2.866649e+01	0	0
11016	2.208000e+00	7.164705e+00	2.277494e+01	0	0
12969	2.208000e+00	-4.014690e-01	-3.672415e+00	0	0
14922	2.208000e+00	-1.367228e+01	3.430889e+00	0	0
16875	2.208000e+00	-2.632926e+01	-2.765716e+01	0	0
18828	2.208000e+00	-5.106477e+01	-3.812483e+01	0	0
20781	2.208000e+00	-5.438884e+01	-5.512273e+00	0	0
22734	2.208000e+00	-6.158483e+01	4.811784e+00	0	0
24688	2.208000e+00	-6.887758e+01	4.625558e+00	0	0
26641	2.208000e+00	-7.542081e+01	-1.151145e+00	0	0
28594	2.208000e+00	-8.355242e+01	3.215305e+01	0	0
30547	2.208000e+00	-8.509122e+01	3.184507e+01	0	0
32500	2.208000e+00	-8.427143e+01	1.629639e+00	0	0
34453	2.208000e+00	-8.456494e+01	3.329499e+00	0	0
36406	2.208000e+00	-7.426473e+01	-2.992908e+01	0	0
38359	2.208000e+00	-7.857101e+01	-4.026039e+01	0	0
40313	2.208000e+00	-9.308174e+01	-1.474492e+01	0	0
42266	2.208000e+00	-1.016877e+02	-2.535669e+00	0	0
44219	2.208000e+00	-1.072531e+02	1.047626e+00	0	0
46172	2.208000e+00	-1.095957e+02	-6.167942e+00	0	0
48125	2.208000e+00	-1.083085e+02	3.168416e+01	0	0
50078	2.208000e+00	-9.405751e+01	4.152125e+01	0	0
52031	2.208000e+00	-1.096744e+02	6.864199e+00	0	0
53984	2.208000e+00	-1.007508e+02	-4.512346e+00	0	0
55938	2.208000e+00	-9.906614e+01	6.722700e+00	0	0
57891	2.207355e+00	-1.064102e+02	-4.030280e+01	0	0
59844	2.207645e+00	-1.075658e+02	-2.147883e+01	0	0
61797	2.207355e+00	-1.067354e+02	4.304302e+00	0	0
63750	2.207645e+00	-1.048926e+02	-2.048346e+00	0	0
65703	2.207355e+00	-1.159368e+02	3.442449e-01	0	0
67656	2.207000e+00	-1.208159e+02	4.312007e-02	0	0
69609	2.207000e+00	-1.159949e+02	4.480427e+01	0	0
71563	2.207000e+00	-1.134762e+02	2.062910e+01	0	0
73516	2.207000e+00	-1.091198e+02	-7.079991e+00	0	0
75469	2.207000e+00	-1.225744e+02	7.538990e+00	0	0
77422	2.207000e+00	-1.196444e+02	-3.939934e+01	0	0
79375	2.207000e+00	-1.095595e+02	-3.142833e+01	0	0
81328	2.207000e+00	-1.118332e+02	-3.779419e-01	0	0
83281	2.207000e+00	-1.210088e+02	-7.870578e-01	0	0
85234	2.207000e+00	-1.289529e+02	1.534861e+00	0	0
87188	2.207000e+00	-1.281796e+02	-6.543206e+00	0	0
89141	2.207000e+00	-1.368415e+02	3.640233e+01	0	0
91094	2.207000e+00	-1.137559e+02	1.934914e+01	0	0
93047	2.207000e+00	-1.013181e+02	-6.056314e+00	0	0
95000	2.207000e+00	-1.034721e+02	6.578175e+00	0	0
96953	2.207000e+00	-1.122372e+02	-3.291203e+01	0	0
98906	2.207000e+00	-1.023599e+02	-3.462606e+01	0	0
100859	2.207000e+00	-1.032971e+02	-4.016503e+00	0	0
102813	2.207000e+00	-1.168420e+02	3.502399e-01	0	0
104766	2.207000e+00	-1.231073e+02	1.364090e+00	0	0
106719	2.207000e+00	-1.259492e+02	-5.853627e+00	0	0
108672	2.207000e+00	-1.171415e+02	3.529756e+01	0	0
110625	2.207000e+00	-1.123882e+02	1.851146e+01	0	0
112578	2.207000e+00	-9.897998e+01	-5.673713e+00	0	0
114531	2.207000e+00	-9.621739e+01	5.815593e+00	0	0
116484	2.207000e+00	-9.187743e+01	-3.024279e+01	0	0
118438	2.207000e+00	-9.019439e+01	-4.893058e+01	0	0
120391	2.207000e+00	-9.970953e+01	-1.085573e+01	0	0
122344	2.207000e+00	-1.017738e+02	3.492558e+00	0	0
124297	2.207000e+00	-9.882204e+01	2.465944e+00	0	0
126250	2.207000e+00	-9.955860e+01	-3.100441e+00	0	0
128203	2.207000e+00	-1.108384e+02	3.266161e+01	0	0
130156	2.206351e+00	-1.039449e+02	4.342285e+01	0	0
132109	2.206649e+00	-8.616237e+01	9.768187e+00	0	0
134063	2.206350e+00	-8.173274e+01	2.105976e+00	0	0
136016	2.206650e+00	-9.182898e+01	-8.397003e+00	0	0
137969	2.206350e+00	-9.682448e+01	-4.274908e+01	0	0
139922	2.206000e+00	-8.842453e+01	-3.555192e+01	0	0
141875	2.206000e+00	-9.836785e+01	-3.841456e+00	0	0
143828	2.206000e+00	-1.046483e+02	4.274811e+00	0	0
145781	2.206651e+00	-1.041087e+02	6.651364e+00	0	0
147734	2.206349e+00	-9.676622e+01	7.593306e-01	0	0
149688	2.206000e+00	-9.384952e+01	4.772029e+01	0	0
151641	2.206000e+00	-9.418515e+01	2.359400e+01	0	0
153594	2.206000e+00	-7.870527e+01	-8.463632e+00	0	0
155547	2.206000e+00	-7.163734e+01	4.899375e+00	0	0
157500	2.206000e+00	-7.354389e+01	-4.382300e+01	0	0
159453	2.206000e+00	-8.796818e+01	-2.709340e+01	0	0
161406	2.206000e+00	-9.301890e+01	-6.214504e+00	0	0
163359	2.206000e+00	-9.146244e+01	-1.483584e+01	0	0
165313	2.206000e+00	-9.723744e+01	-1.140555e+01	0	0
167266	2.206000e+00	-9.043679e+01	-1.545560e+01	0	0
169219	2.206000e+00	-8.324882e+01	2.744335e+01	0	0
171172	2.206000e+00	-8.506619e+01	1.484143e+01	0	0
173125	2.206000e+00	-7.653850e+01	-5.150373e+00	0	0
175078	2.206000e+00	-6.746394e+01	5.318381e+00	0	0
177031	2.206000e+00	-7.831463e+01	-2.546482e+01	0	0
178984	2.206000e+00	-7.346607e+01	-3.885086e+01	0	0
180938	2.206000e+00	-7.899813e+01	-4.665769e+00	0	0
182891	2.206000e+00	-8.539787e+01	8.473109e+00	0	0
184844	2.206000e+00	-8.611154e+01	8.433852e+00	0	0
186797	2.206000e+00	-8.959468e+01	1.960932e+00	0	0
188750	2.206000e+00	-8.146380e+01	4.090759e+01	0	0
190703	2.206000e+00	-8.302916e+01	2.246514e+01	0	0
192656	2.206000e+00	-7.830705e+01	-5.554891e-01	0	0
194609	2.206000e+00	-7.673334e+01	1.161688e+01	0	0
196563	2.206000e+00	-7.695673e+01	-2.585221e+01	0	0
198516	2.206000e+00	-7.467561e+01	-4.196681e+01	0	0
200469	2.206000e+00	-8.155561e+01	-7.215086e+00	0	0
202422	2.206000e+00	-8.925881e+01	6.000885e+00	0	0
204375	2.206000e+00	-8.783057e+01	5.638536e+00	0	0
206328	2.206000e+00	-9.166248e+01	-2.302018e+00	0	0
208281	2.206000e+00	-9.213716e+01	3.851647e+01	0	0
210234	2.206000e+00	-8.628597e+01	3.929172e+01	0	0
212188	2.205344e+00	-7.593789e+01	5.379844e+00	0	0
214141	2.205000e+00	-8.230137e+01	1.057123e+00	0	0
216094	2.205656e+00	-7.170840e+01	-6.101686e+00	0	0
218047	2.206000e+00	-8.163141e+01	-4.535106e+01	0	0
220000	2.205344e+00	-9.486503e+01	-3.107423e+01	0	0
221953	2.205656e+00	-8.293691e+01	-5.533112e-01	0	0
223906	2.205344e+00	-1.018013e+02	1.159001e+00	0	0
225859	2.205000e+00	-1.068625e+02	7.634633e-01	0	0
227813	2.205000e+00	-1.035990e+02	3.980725e-01	0	0
229766	2.205000e+00	-1.113975e+02	4.732775e+01	0	0
231719	2.205000e+00	-9.217669e+01	2.029937e+01	0	0
233672	2.205000e+00	-9.144174e+01	-8.193564e+00	0	0
235625	2.205000e+00	-8.814260e+01	6.462465e+00	0	0
237578	2.205000e+00	-8.974118e+01	-4.300030e+01	0	0
239531	2.205000e+00	-9.871268e+01	-3.923961e+01	0	0
241484	2.205000e+00	-9.532927e+01	-4.183020e+00	0	0
243438	2.205000e+00	-1.144432e+02	-1.246063e+00	0	0
245391	2.205000e+00	-1.070475e+02	7.208529e-01	0	0
247344	2.205000e+00	-1.144839e+02	-7.178424e+00	0	0
249297	2.205000e+00	-1.120287e+02	3.883865e+01	0	0
251250	2.205000e+00	-1.031531e+02	1.993273e+01	0	0
253203	2.205000e+00	-1.050014e+02	-5.282266e+00	0	0
255156	2.205000e+00	-9.637905e+01	7.727111e+00	0	0
257109	2.205000e+00	-9.822484e+01	-3.145828e+01	0	0
259063	2.205000e+00	-1.083888e+02	-3.687087e+01	0	0
261016	2.205000e+00	-9.141535e+01	-4.364267e+00	0	0
262969	2.205000e+00	-1.188996e+02	2.263610e+00	0	0
264922	2.205000e+00	-1.261253e+02	2.542315e+00	0	0
266875	2.205000e+00	-1.137113e+02	-4.294988e+00	0	0
268828	2.205000e+00	-1.212485e+02	3.479390e+01	0	0
270781	2.205000e+00	-9.717915e+01	1.806081e+01	0	0
272734	2.205000e+00	-9.470026e+01	-3.918188e+00	0	0
274688	2.205000e+00	-9.752770e+01	6.825374e+00	0	0
276641	2.205000e+00	-9.137361e+01	-2.797193e+01	0	0
278594	2.205000e+00	-9.851206e+01	-3.857875e+01	0	0
280547	2.205000e+00	-1.037086e+02	-6.512271e+00	0	0
282500	2.205000e+00	-1.026996e+02	2.572399e+00	0	0
284453	2.205000e+00	-1.161055e+02	1.588290e+00	0	0
286406	2.204339e+00	-1.130611e+02	-3.409441e+00	0	0
288359	2.204661e+00	-1.070324e+02	2.869288e+01	0	0
290313	2.205000e+00	-1.122549e+02	4.766285e+01	0	0
292266	2.204339e+00	-1.028338e+02	1.173567e+01	0	0
294219	2.204000e+00	-8.864577e+01	3.420804e+00	0	0
296172	2.204000e+00	-8.447165e+01	-2.282115e+01	0	0
298125	2.204000e+00	-9.519292e+01	-4.560219e+01	0	0
300078	2.204000e+00	-1.093732e+02	-3.667400e+01	0	0
302031	2.204662e+00	-1.034592e+02	-5.774129e+00	0	0
303984	2.204338e+00	-1.052943e+02	5.110823e+00	0	0
305938	2.204000e+00	-1.183949e+02	3.457758e+00	0	0
307891	2.204000e+00	-1.173908e+02	-3.079790e-01	0	0
309844	2.204000e+00	-1.070242e+02	4.378538e+01	0	0
311797	2.204000e+00	-1.058214e+02	2.011424e+01	0	0
313750	2.204000e+00	-9.050302e+01	-6.003109e+00	0	0
315703	2.204000e+00	-9.698084e+01	8.341333e+00	0	0
317656	2.204000e+00	-1.064078e+02	-4.104397e+01	0	0
319609	2.204000e+00	-1.005842e+02	-3.413998e+01	0	0
321563	2.204000e+00	-1.033094e+02	-4.204845e+00	0	0
323516	2.204000e+00	-1.101188e+02	-3.934154e+00	0	0
325469	2.204000e+00	-1.159662e+02	-6.896640e-02	0	0
327422	2.204000e+00	-1.094619e+02	-7.140533e+00	0	0
329375	2.204000e+00	-1.025747e+02	3.723318e+01	0	0
331328	2.204000e+00	-9.087058e+01	1.773958e+01	0	0
333281	2.204000e+00	-9.136635e+01	-6.760722e+00	0	0
335234	2.204000e+00	-9.776773e+01	5.794484e+00	0	0
337188	2.204000e+00	-9.146870e+01	-3.122925e+01	0	0
339141	2.204000e+00	-8.607493e+01	-3.874753e+01	0	0
341094	2.204000e+00	-9.878084e+01	-4.050310e+00	0	0
343047	2.204000e+00	-9.114494e+01	4.908675e+00	0	0
345000	2.204000e+00	-7.661093e+01	5.153254e+00	0	0
346953	2.204000e+00	-7.333523e+01	-1.736189e+00	0	0
348906	2.204000e+00	-4.043300e+01	3.796466e+01	0	0
350859	2.204000e+00	1.748166e+01	1.881787e+01	0	0
352813	2.204000e+00	3.707581e+01	-4.948788e+00	0	0
354766	2.204000e+00	4.168661e+01	5.641943e+00	0	0
356719	2.204000e+00	5.118080e+01	-3.001257e+01	0	0
358672	2.204000e+00	5.315064e+01	-3.642535e+01	0	0
360625	2.204000e+00	5.067598e+01	-5.917916e+00	0	0
362578	2.204000e+00	4.497795e+01	-9.488913e-01	0	0
364531	2.204000e+00	4.275205e+01	-3.499737e+00	0	0
366484	2.204000e+00	3.391385e+01	-9.466127e+00	0	0
368438	2.204000e+00	4.455378e+01	2.214950e+01	0	0
370391	2.204000e+00	7.176991e+01	3.417438e+01	0	0
372344	2.203333e+00	9.421225e+01	5.750274e+00	0	0
374297	2.203667e+00	8.969256e+01	4.119090e+00	0	0
376250	2.204000e+00	9.994728e+01	-2.782171e+01	0	0
378203	2.204000e+00	1.024234e+02	-4.031623e+01	0	0
380156	2.203333e+00	9.987004e+01	-3.125992e+01	0	0
382109	2.203667e+00	1.055786e+02	-2.596037e+00	0	0
384063	2.203332e+00	1.159302e+02	9.113970e+00	0	0
386016	2.203000e+00	1.322302e+02	4.089543e+00	0	0
387969	2.203000e+00	1.502316e+02	7.469273e+00	0	0
389922	2.203000e+00	1.514137e+02	4.951607e+01	0	0
391875	2.203000e+00	1.625332e+02	1.937835e+01	0	0
393828	2.203000e+00	1.571364e+02	-6.204016e+00	0	0
395781	2.203000e+00	1.635633e+02	6.330280e+00	0	0
397734	2.203000e+00	1.632467e+02	-4.879112e+01	0	0
399688	2.203000e+00	1.268369e+02	-3.738515e+01	0	0
401641	2.203000e+00	1.219775e+02	-4.386431e+00	0	0
403594	2.203000e+00	1.151451e+02	-3.814246e+00	0	0
405547	2.203000e+00	1.161301e+02	1.256588e+00	0	0
407500	2.203000e+00	1.016331e+02	-7.692667e+00	0	0
409453	2.203000e+00	8.435986e+01	4.208736e+01	0	0
411406	2.203000e+00	6.149985e+01	1.918061e+01	0	0
413359	2.203000e+00	3.684694e+01	-8.185753e+00	0	0
415313	2.203000e+00	2.195243e+01	5.438298e+00	0	0
417266	2.203000e+00	2.590286e+00	-3.926547e+01	0	0
419219	2.203000e+00	-2.417773e+01	-3.652434e+01	0	0
421172	2.203000e+00	-4.872439e+01	-3.069364e+00	0	0
423125	2.203000e+00	-5.890208e+01	1.177206e+00	0	0
425078	2.203000e+00	-7.793928e+01	2.707983e+00	0	0
427031	2.203000e+00	-8.934651e+01	-4.849740e+00	0	0
428984	2.203000e+00	-8.924591e+01	3.653034e+01	0	0
430938	2.203000e+00	-9.257151e+01	1.709402e+01	0	0
432891	2.203000e+00	-9.474103e+01	-5.323150e+00	0	0
434844	2.203000e+00	-1.044986e+02	5.712063e+00	0	0
436797	2.203000e+00	-1.017263e+02	-3.040278e+01	0	0
438750	2.203000e+00	-1.128097e+02	-3.894357e+01	0	0
440703	2.203000e+00	-1.278452e+02	-6.894554e+00	0	0
442656	2.203000e+00	-1.257795e+02	1.261811e+00	0	0
444609	2.203000e+00	-1.257815e+02	7.028955e-01	0	0
446563	2.203000e+00	-1.432020e+02	-4.619923e+00	0	0
448516	2.203000e+00	-1.422850e+02	2.907727e+01	0	0
450469	2.203000e+00	-1.408180e+02	3.560564e+01	0	0
452422	2.203000e+00	-1.408826e+02	5.390912e+00	0	0
454375	2.203000e+00	-1.419068e+02	4.630053e+00	0	0
456328	2.203000e+00	-1.405101e+02	-2.834271e+01	0	0
458281	2.203000e+00	-1.360858e+02	-4.079299e+01	0	0
460234	2.203000e+00	-1.460806e+02	-3.180256e+01	0	0
462188	2.202326e+00	-1.578344e+02	-7.112159e+00	0	0
464141	2.202000e+00	-1.590540e+02	3.279442e+00	0	0
466094	2.202000e+00	-1.590467e+02	-2.833574e+00	0	0
468047	2.202000e+00	-1.553972e+02	1.876434e+01	0	0
470000	2.202000e+00	-1.526985e+02	5.373814e+01	0	0
471953	2.202000e+00	-1.576829e+02	1.686965e+01	0	0
473906	2.202000e+00	-1.423609e+02	-5.635955e+00	0	0
475859	2.202000e+00	-1.415806e+02	7.157885e+00	0	0
477813	2.202000e+00	-1.550317e+02	-4.329543e+01	0	0
479766	2.202000e+00	-1.519646e+02	-3.459965e+01	0	0
481719	2.202000e+00	-1.633588e+02	-1.381976e+00	0	0
483672	2.202000e+00	-1.697397e+02	-4.436933e-01	0	0
485625	2.202000e+00	-1.665754e+02	1.453793e+00	0	0
487578	2.202000e+00	-1.724043e+02	-7.584389e+00	0	0
489531	2.202000e+00	-1.703158e+02	4.293902e+01	0	0
491484	2.202000e+00	-1.637003e+02	2.002523e+01	0	0
493438	2.202000e+00	-1.572757e+02	-6.442318e+00	0	0
495391	2.202000e+00	-1.473624e+02	7.290163e+00	0	0
497344	2.202000e+00	-1.386298e+02	-3.871259e+01	0	0
499297	2.202000e+00	-1.524494e+02	-3.250210e+01	0	0
501250	2.202000e+00	-1.940683e+02	-2.056795e+00	0	0
503203	2.202000e+00	-2.243453e+02	-3.139657e-01	0	0
505156	2.202000e+00	-2.303232e+02	9.510864e-01	0	0
507109	2.202000e+00	-2.362613e+02	-5.590973e+00	0	0
509063	2.202000e+00	-2.092101e+02	3.257522e+01	0	0
511016	2.202000e+00	-1.510306e+02	3.029252e+01	0	0
512969	2.202000e+00	-8.189394e+01	7.115634e-01	0	0
514922	2.202000e+00	3.901240e+01	3.923619e+00	0	0
516875	2.202000e+00	1.393027e+02	-3.269305e+01	0	0
518828	2.202000e+00	2.485868e+02	-3.218109e+01	0	0
520781	2.202000e+00	4.514348e+02	-3.894231e+00	0	0
522734	2.202000e+00	7.296706e+02	-4.085933e-01	0	0
524688	2.202000e+00	9.751834e+02	4.169987e-01	0	0
526641	2.202000e+00	1.231289e+03	-5.898488e+00	0	0
528594	2.202000e+00	1.516664e+03	3.228374e+01	0	0
530547	2.202000e+00	1.750963e+03	3.396884e+01	0	0
532500	2.202000e+00	1.914784e+03	2.041255e+00	0	0
534453	2.202000e+00	1.872518e+03	3.094462e+00	0	0
536406	2.202000e+00	1.726770e+03	-3.362153e+01	0	0
538359	2.201321e+00	1.402355e+03	-5.095215e+01	0	0
540313	2.201679e+00	1.097807e+03	-2.711524e+01	0	0
542266	2.201321e+00	8.557643e+02	-4.726846e+00	0	0
544219	2.201679e+00	6.551032e+02	1.176829e+00	0	0
546172	2.202000e+00	4.406815e+02	-4.842342e+00	0	0
548125	2.201320e+00	8.374475e+01	2.599291e+01	0	0
550078	2.201000e+00	-1.749411e+02	5.558471e+01	0	0
552031	2.201000e+00	-2.614879e+02	1.434144e+01	0	0
553984	2.201000e+00	-3.021584e+02	-6.201141e+00	0	0
555938	2.201000e+00	-2.930168e+02	6.184673e+00	0	0
557891	2.201000e+00	-2.507812e+02	-4.091130e+01	0	0
559844	2.201000e+00	-2.279237e+02	-3.511722e+01	0	0
561797	2.201000e+00	-1.815010e+02	-3.226242e+00	0	0
563750	2.201000e+00	-1.553395e+02	-1.102571e+00	0	0
565703	2.201000e+00	-1.314894e+02	6.698228e-01	0	0
567656	2.201000e+00	-1.179771e+02	-8.100874e+00	0	0
569609	2.201000e+00	-1.021923e+02	3.975564e+01	0	0
571563	2.201000e+00	-8.750666e+01	1.659480e+01	0	0
573516	2.201000e+00	-7.954966e+01	-8.664507e+00	0	0
575469	2.201000e+00	-8.694894e+01	5.630349e+00	0	0
577422	2.201000e+00	-9.811988e+01	-4.295699e+01	0	0
579375	2.201000e+00	-9.983380e+01	-1.907842e+01	0	0
581328	2.201000e+00	-9.139961e+01	3.409232e+00	0	0
583281	2.201000e+00	-9.021311e+01	-2.687172e+00	0	0
585234	2.201000e+00	-1.036492e+02	8.688437e-01	0	0
587188	2.201000e+00	-1.129502e+02	-7.226007e+00	0	0
589141	2.201000e+00	-1.022556e+02	3.639424e+01	0	0
591094	2.201000e+00	-1.037102e+02	1.824294e+01	0	0
593047	2.201000e+00	-9.877556e+01	-5.197379e+00	0	0
595000	2.201000e+00	-9.533120e+01	4.231546e+00	0	0
596953	2.201000e+00	-8.749225e+01	-3.103319e+01	0	0
598906	2.201000e+00	-8.830188e+01	-5.030515e+01	0	0
600859	2.201000e+00	-9.035911e+01	-1.077522e+01	0	0
602813	2.201000e+00	-8.841707e+01	2.953841e+00	0	0
604766	2.201000e+00	-9.985730e+01	1.510303e+00	0	0
606719	2.201000e+00	-1.095130e+02	-4.534731e+00	0	0
608672	2.201000e+00	-9.149025e+01	3.400647e+01	0	0
610625	2.201000e+00	-8.962629e+01	1.906987e+01	0	0
612578	2.201000e+00	-7.955501e+01	-3.081964e+00	0	0
614531	2.201000e+00	-8.299176e+01	2.124813e+00	0	0
616484	2.201000e+00	-7.213398e+01	-1.916359e+01	0	0
618438	2.201000e+00	-7.344947e+01	-4.463850e+01	0	0
620391	2.201000e+00	-8.208195e+01	-1.813000e+01	0	0
622344	2.201000e+00	-8.237404e+01	-2.824999e-01	0	0
624297	2.200315e+00	-8.650375e+01	2.067224e-01	0	0
626250	2.200685e+00	-9.053416e+01	-5.168361e+00	0	0
628203	2.200315e+00	-9.080008e+01	3.067841e+01	0	0
630156	2.200000e+00	-8.022667e+01	4.932649e+01	0	0
632109	2.200000e+00	-6.664063e+01	1.067769e+01	0	0
634063	2.200000e+00	-4.868036e+01	-4.862862e+00	0	0
636016	2.200000e+00	-6.744420e+01	6.497818e+00	0	0
637969	2.200000e+00	-6.352372e+01	-4.096365e+01	0	0
639922	2.200000e+00	-5.593994e+01	-2.753590e+01	0	0
641875	2.200000e+00	-6.145065e+01	1.361770e-01	0	0
643828	2.200000e+00	-6.194321e+01	-1.289417e+00	0	0
645781	2.200000e+00	-4.956216e+01	1.292127e+00	0	0
647734	2.200000e+00	-4.578416e+01	-8.432264e+00	0	0
649688	2.200000e+00	-3.995550e+01	4.480505e+01	0	0
651641	2.200000e+00	-3.826777e+01	1.897731e+01	0	0
653594	2.200000e+00	-2.895820e+01	-7.934764e+00	0	0
655547	2.200000e+00	-1.686298e+01	7.249738e+00	0	0
657500	2.200000e+00	-1.851521e+01	-4.578295e+01	0	0
659453	2.200000e+00	-1.218089e+01	-2.714435e+01	0	0
661406	2.200000e+00	-1.101637e+01	1.497676e+00	0	0
663359	2.200000e+00	-2.904095e+01	-1.123583e+00	0	0
665313	2.200000e+00	-2.941269e+01	1.860592e+00	0	0
667266	2.200000e+00	-2.804176e+01	-6.622489e+00	0	0
669219	2.200000e+00	-2.652107e+00	4.071299e+01	0	0
671172	2.200000e+00	3.163238e+00	1.768609e+01	0	0
673125	2.200000e+00	3.383177e+00	-5.480675e+00	0	0
675078	2.200000e+00	1.116065e+01	5.923875e+00	0	0
677031	2.200000e+00	1.170972e+01	-3.335061e+01	0	0
678984	2.200000e+00	9.265069e+00	-5.057847e+01	0	0
680938	2.200000e+00	1.381781e+01	-1.037896e+01	0	0
682891	2.200000e+00	8.219387e+00	2.099457e+00	0	0
684844	2.200000e+00	1.074391e+01	9.264781e-01	0	0
686797	2.200000e+00	2.255123e+01	-5.605423e+00	0	0
688750	2.200000e+00	2.671335e+01	3.686587e+01	0	0
690703	2.200000e+00	3.807288e+01	2.371749e+01	0	0
692656	2.199310e+00	4.935583e+01	-1.710570e+00	0	0
694609	2.199690e+00	5.502105e+01	3.684980e+00	0	0
696563	2.200000e+00	6.102703e+01	-2.486158e+01	0	0
698516	2.200000e+00	5.583207e+01	-5.096458e+01	0	0
700469	2.200000e+00	5.870347e+01	-1.733260e+01	0	0
702422	2.200000e+00	6.427338e+01	9.772030e-01	0	0
704375	2.200000e+00	6.650682e+01	9.907377e-01	0	0
706328	2.200000e+00	8.056736e+01	-4.873668e+00	0	0
708281	2.200000e+00	8.285587e+01	3.517887e+01	0	0
710234	2.199309e+00	9.624984e+01	5.479006e+01	0	0
712188	2.199000e+00	1.101782e+02	1.219991e+01	0	0
714141	2.199000e+00	1.091209e+02	-4.078810e+00	0	0
716094	2.199000e+00	1.204524e+02	6.957252e+00	0	0
718047	2.199000e+00	1.261080e+02	-4.085427e+01	0	0
720000	2.199000e+00	1.220985e+02	-4.109551e+01	0	0
721953	2.199000e+00	1.473097e+02	-4.742588e+00	0	0
723906	2.199000e+00	1.396895e+02	6.104553e-01	0	0
725859	2.199000e+00	1.386622e+02	1.744092e+00	0	0
727813	2.199000e+00	1.531967e+02	-7.334658e+00	0	0
729766	2.199000e+00	1.723215e+02	4.660185e+01	0	0
731719	2.199000e+00	1.699603e+02	1.997123e+01	0	0
733672	2.199000e+00	1.920269e+02	-6.580463e+00	0	0
735625	2.199000e+00	2.084427e+02	8.252045e+00	0	0
737578	2.199000e+00	2.169791e+02	-4.424536e+01	0	0
739531	2.199000e+00	2.302088e+02	-2.503958e+01	0	0
741484	2.199000e+00	2.253177e+02	2.071894e+00	0	0
743438	2.199000e+00	2.304181e+02	-1.889840e+00	0	0
745391	2.199000e+00	2.428015e+02	4.587984e-01	0	0
747344	2.199000e+00	2.576100e+02	-6.386695e+00	0	0
749297	2.199000e+00	2.718806e+02	3.849056e+01	0	0
751250	2.199000e+00	2.872564e+02	1.801144e+01	0	0
753203	2.199000e+00	2.964655e+02	-4.337211e+00	0	0
755156	2.199000e+00	3.163346e+02	5.218449e+00	0	0
757109	2.199000e+00	3.364144e+02	-3.084665e+01	0	0
759063	2.199000e+00	3.542385e+02	-5.043643e+01	0	0
761016	2.199000e+00	3.573918e+02	-1.084854e+01	0	0
762969	2.199000e+00	3.571367e+02	2.457068e+00	0	0
764922	2.199000e+00	3.636677e+02	1.317953e+00	0	0
766875	2.199000e+00	3.751389e+02	-4.781445e+00	0	0
768828	2.199000e+00	3.866966e+02	3.536648e+01	0	0
770781	2.199000e+00	4.062005e+02	1.938738e+01	0	0
772734	2.199000e+00	4.246078e+02	-3.023989e+00	0	0
774688	2.199000e+00	4.347461e+02	4.988148e+00	0	0
776641	2.199000e+00	4.453214e+02	-3.123965e+01	0	0
778594	2.199000e+00	4.485875e+02	-4.881075e+01	0	0
780547	2.199000e+00	4.625157e+02	-1.814214e+01	0	0
782500	2.199000e+00	4.699613e+02	-8.172496e-01	0	0
784453	2.199000e+00	4.790120e+02	1.391029e+00	0	0
786406	2.199000e+00	4.840652e+02	-4.684930e+00	0	0
788359	2.198304e+00	4.898224e+02	3.320514e+01	0	0
790313	2.198696e+00	5.002285e+02	4.820974e+01	0	0
792266	2.198304e+00	4.943611e+02	9.808201e+00	0	0
794219	2.198000e+00	5.003238e+02	-3.292724e+00	0	0
796172	2.198000e+00	5.095910e+02	4.060469e+00	0	0
798125	2.198000e+00	5.012811e+02	-3.812743e+01	0	0
800078	2.198000e+00	4.933438e+02	-3.741277e+01	0	0
802031	2.198000e+00	4.743747e+02	-4.296562e+00	0	0
803984	2.198000e+00	4.527063e+02	8.723577e-01	0	0
805938	2.198000e+00	4.289877e+02	1.851193e+00	0	0
807891	2.198000e+00	4.048542e+02	-6.267438e+00	0	0
809844	2.198000e+00	3.974521e+02	4.280333e+01	0	0
811797	2.198000e+00	3.648927e+02	1.816374e+01	0	0
813750	2.198000e+00	3.497634e+02	-5.411504e+00	0	0
815703	2.198000e+00	3.194833e+02	7.877888e+00	0	0
817656	2.198000e+00	2.911255e+02	-4.003889e+01	0	0
819609	2.198000e+00	2.583035e+02	-2.733203e+01	0	0
821563	2.198000e+00	2.167067e+02	5.058684e-01	0	0
823516	2.198000e+00	1.973826e+02	2.133739e-01	0	0
825469	2.198000e+00	1.624037e+02	2.402025e+00	0	0
827422	2.198000e+00	1.366207e+02	-5.481066e+00	0	0
829375	2.198000e+00	1.268525e+02	4.024230e+01	0	0
831328	2.198000e+00	1.074415e+02	1.712747e+01	0	0
833281	2.198000e+00	9.722638e+01	-4.347523e+00	0	0
835234	2.198000e+00	7.290683e+01	6.721362e+00	0	0
837188	2.198000e+00	4.867912e+01	-3.310772e+01	0	0
839141	2.198000e+00	3.143036e+01	-4.688081e+01	0	0
841094	2.198000e+00	1.715571e+01	-8.399015e+00	0	0
843047	2.198000e+00	1.303479e+00	2.635513e+00	0	0
845000	2.198000e+00	-2.563668e+01	2.012255e+00	0	0
846953	2.198000e+00	-3.518274e+01	-4.515546e+00	0	0
848906	2.198000e+00	-3.566852e+01	3.833381e+01	0	0
850859	2.198000e+00	-3.258521e+01	2.666567e+01	0	0
852813	2.198000e+00	-3.817936e+01	-2.893514e-01	0	0
854766	2.198000e+00	-4.655728e+01	6.427451e+00	0	0
856719	2.198000e+00	-5.169400e+01	-3.432988e+01	0	0
858672	2.198000e+00	-6.414467e+01	-3.738735e+01	0	0
860625	2.198000e+00	-6.831755e+01	-1.163052e+01	0	0
862578	2.198000e+00	-5.836282e+01	-6.753753e-01	0	0
864531	2.198000e+00	-6.393729e+01	2.881948e+00	0	0
866484	2.198000e+00	-8.783466e+01	-4.067302e+00	0	0
868438	2.198000e+00	-9.077878e+01	3.482775e+01	0	0
870391	2.198000e+00	-6.876364e+01	4.551601e+01	0	0
872344	2.197299e+00	-8.155514e+01	8.947422e+00	0	0
874297	2.197000e+00	-7.694615e+01	-4.781028e-01	0	0
876250	2.197000e+00	-6.723602e+01	-3.023321e+00	0	0
878203	2.197000e+00	-8.415763e+01	-4.023951e+01	0	0
880156	2.197000e+00	-8.130222e+01	-4.614739e+01	0	0
882109	2.197000e+00	-9.278041e+01	-7.172839e+00	0	0
884063	2.197000e+00	-9.861034e+01	3.760678e+00	0	0
886016	2.197000e+00	-9.727618e+01	3.968522e+00	0	0
887969	2.197000e+00	-1.068397e+02	-5.872597e+00	0	0
889922	2.197000e+00	-9.473859e+01	4.836380e+01	0	0
891875	2.197000e+00	-9.013425e+01	2.041319e+01	0	0
893828	2.197000e+00	-8.971152e+01	-5.426032e+00	0	0
895781	2.197000e+00	-8.178984e+01	9.182537e+00	0	0
897734	2.197000e+00	-8.836654e+01	-4.488821e+01	0	0
899688	2.197000e+00	-9.153011e+01	-3.269130e+01	0	0
901641	2.197000e+00	-9.085108e+01	-1.187959e-01	0	0
903594	2.197000e+00	-1.016867e+02	6.535543e-01	0	0
905547	2.197000e+00	-1.042637e+02	2.629798e+00	0	0
907500	2.197000e+00	-1.075956e+02	-5.769576e+00	0	0
909453	2.197000e+00	-1.017106e+02	4.334499e+01	0	0
911406	2.197000e+00	-1.020475e+02	1.797449e+01	0	0
913359	2.197000e+00	-8.729102e+01	-4.847232e+00	0	0
915313	2.197000e+00	-8.526793e+01	7.317652e+00	0	0
917266	2.197000e+00	-8.965619e+01	-3.599267e+01	0	0
919219	2.197000e+00	-8.219547e+01	-2.620417e+01	0	0
921172	2.197000e+00	-8.920519e+01	-2.826855e-01	0	0
923125	2.197000e+00	-8.303898e+01	3.677953e-01	0	0
925078	2.197000e+00	-9.246783e+01	1.825509e+00	0	0
927031	2.197000e+00	-1.034326e+02	-4.545595e+00	0	0
928984	2.197000e+00	-1.007560e+02	3.350643e+01	0	0
930938	2.197000e+00	-8.370286e+01	2.151246e+01	0	0
932891	2.197000e+00	-6.627433e+01	-1.214865e+00	0	0
934844	2.197000e+00	-8.104543e+01	4.706642e+00	0	0
936797	2.197000e+00	-8.281127e+01	-2.980783e+01	0	0
938750	2.197000e+00	-8.321625e+01	-3.876839e+01	0	0
940703	2.197000e+00	-8.622107e+01	-1.032784e+01	0	0
942656	2.197000e+00	-8.695559e+01	9.776629e-02	0	0
944609	2.197000e+00	-9.063757e+01	9.904836e-01	0	0
946563	2.197000e+00	-8.932713e+01	-3.589301e+00	0	0
948516	2.197000e+00	-8.226068e+01	2.792875e+01	0	0
950469	2.196294e+00	-8.129029e+01	4.877922e+01	0	0
952422	2.196706e+00	-8.070657e+01	1.034220e+01	0	0
954375	2.196294e+00	-6.220323e+01	-1.059374e+00	0	0
956328	2.196000e+00	-5.866047e+01	-1.148925e+01	0	0
958281	2.196000e+00	-7.684860e+01	-3.968689e+01	0	0
960234	2.196000e+00	-7.827773e+01	-4.444198e+01	0	0
962188	2.196000e+00	-7.260333e+01	-7.534896e+00	0	0
964141	2.196000e+00	-7.426734e+01	3.727736e+00	0	0
966094	2.196000e+00	-7.591766e+01	3.959255e+00	0	0
968047	2.196000e+00	-8.684554e+01	-4.211274e+00	0	0
970000	2.196000e+00	-6.857384e+01	4.570714e+01	0	0
971953	2.196000e+00	-6.402165e+01	1.797125e+01	0	0
973906	2.196000e+00	-6.232902e+01	-6.025210e+00	0	0
975859	2.196000e+00	-5.381623e+01	8.141391e+00	0	0
977813	2.196000e+00	-5.449672e+01	-4.455490e+01	0	0
979766	2.196000e+00	-6.014232e+01	-1.740062e+01	0	0
981719	2.196000e+00	-6.570866e+01	2.516029e+00	0	0
983672	2.196000e+00	-6.446685e+01	-4.539288e+00	0	0
985625	2.196000e+00	-5.805681e+01	-1.051290e+00	0	0
987578	2.196000e+00	-7.290051e+01	-7.977217e+00	0	0
989531	2.196000e+00	-6.764940e+01	3.668084e+01	0	0
991484	2.196000e+00	-4.805060e+01	1.278098e+01	0	0
993438	2.196000e+00	-5.656251e+01	-7.674001e+00	0	0
995391	2.196000e+00	-4.799499e+01	3.288743e+00	0	0
997344	2.196000e+00	-4.663944e+01	-3.621827e+01	0	0
999297	2.196000e+00	-5.525666e+01	-2.861195e+01	0	0
1001250	2.196000e+00	-5.908691e+01	-2.137575e+00	0	0
1003203	2.196000e+00	-6.461162e+01	-3.350573e-02	0	0
1005156	2.196000e+00	-4.918988e+01	1.177727e+00	0	0
1007109	2.196000e+00	-6.919322e+01	-5.092047e+00	0	0
1009063	2.196000e+00	-6.992066e+01	3.488817e+01	0	0
1011016	2.196000e+00	-5.605779e+01	2.447539e+01	0	0
1012969	2.196000e+00	-6.154662e+01	-6.418421e-01	0	0
1014922	2.196000e+00	-4.844253e+01	4.607373e+00	0	0
1016875	2.196000e+00	-5.480056e+01	-3.230824e+01	0	0
1018828	2.196000e+00	-6.295427e+01	-4.285620e+01	0	0
1020781	2.196000e+00	-6.031591e+01	-1.171066e+01	0	0
1022734	2.196000e+00	-6.465944e+01	1.067367e-01	0	0
1024688	2.196000e+00	-6.827165e+01	1.386096e+00	0	0
1026641	2.196000e+00	-8.265205e+01	-2.451428e+00	0	0
1028594	2.196000e+00	-7.246284e+01	3.055887e+01	0	0
1030547	2.196000e+00	-6.599735e+01	5.403466e+01	0	0
1032500	2.195289e+00	-6.374995e+01	1.325976e+01	0	0
1034453	2.195000e+00	-5.385834e+01	2.260861e+00	0	0
1036406	2.195711e+00	-6.376982e+01	-1.361198e+01	0	0
1038359	2.196000e+00	-7.512628e+01	-4.560521e+01	0	0
1040313	2.196000e+00	-8.680364e+01	-2.997115e+01	0	0
1042266	2.196000e+00	-8.193345e+01	-1.902621e+00	0	0
1044219	2.195288e+00	-8.420405e+01	2.263132e+00	0	0
1046172	2.195000e+00	-8.961366e+01	2.267655e+00	0	0
1048125	2.195000e+00	-9.344387e+01	-3.243209e+00	0	0
1050078	2.195000e+00	-8.819194e+01	5.046236e+01	0	0
1052031	2.195000e+00	-8.438290e+01	1.846534e+01	0	0
1053984	2.195000e+00	-5.890660e+01	-6.645900e+00	0	0
1055938	2.195000e+00	-7.883135e+01	8.082246e+00	0	0
1057891	2.195000e+00	-8.335184e+01	-4.863986e+01	0	0
1059844	2.195000e+00	-8.147938e+01	-3.171919e+01	0	0
1061797	2.195000e+00	-8.964210e+01	-2.087599e+00	0	0
1063750	2.195000e+00	-9.124862e+01	-3.831520e+00	0	0
1065703	2.195000e+00	-9.421444e+01	-1.819853e+00	0	0
1067656	2.195000e+00	-8.916363e+01	-1.040453e+01	0	0
1069609	2.195000e+00	-9.134390e+01	4.049440e+01	0	0
1071563	2.195000e+00	-8.575547e+01	1.411497e+01	0	0
1073516	2.195000e+00	-7.410860e+01	-7.420666e+00	0	0
1075469	2.195000e+00	-8.134439e+01	6.031488e+00	0	0
1077422	2.195000e+00	-8.219303e+01	-3.845184e+01	0	0
1079375	2.195000e+00	-8.541223e+01	-2.103583e+01	0	0
1081328	2.195000e+00	-9.359983e+01	8.028342e-01	0	0
1083281	2.195000e+00	-8.705782e+01	-1.320045e+00	0	0
1085234	2.195000e+00	-1.006544e+02	8.241792e-01	0	0
1087188	2.195000e+00	-9.456562e+01	-5.550191e+00	0	0
1089141	2.195000e+00	-9.243940e+01	3.208092e+01	0	0
1091094	2.195000e+00	-8.535734e+01	1.647860e+01	0	0
1093047	2.195000e+00	-8.521523e+01	-3.107753e+00	0	0
1095000	2.195000e+00	-8.753535e+01	3.555758e+00	0	0
1096953	2.195000e+00	-7.795820e+01	-2.914771e+01	0	0
1098906	2.195000e+00	-8.144139e+01	-4.427172e+01	0	0
1100859	2.195000e+00	-9.197563e+01	-1.983328e+01	0	0
1102813	2.195000e+00	-9.594413e+01	-2.579935e+00	0	0
1104766	2.195000e+00	-9.692041e+01	1.169800e+00	0	0
1106719	2.195000e+00	-9.799393e+01	-4.335638e+00	0	0
1108672	2.195000e+00	-1.042712e+02	3.370599e+01	0	0
1110625	2.195000e+00	-9.137080e+01	3.204490e+01	0	0
1112578	2.195000e+00	-8.431783e+01	5.333598e+00	0	0
1114531	2.195000e+00	-8.125861e+01	5.410786e+00	0	0
1116484	2.195000e+00	-8.501304e+01	-1.714826e+01	0	0
1118438	2.195000e+00	-9.077878e+01	-4.209917e+01	0	0
1120391	2.195000e+00	-8.244090e+01	-3.157479e+01	0	0
1122344	2.194284e+00	-8.218215e+01	-4.040278e+00	0	0
1124297	2.194000e+00	-8.793268e+01	8.661994e-01	0	0
1126250	2.194000e+00	-1.028426e+02	-1.534704e+00	0	0
1128203	2.194717e+00	-1.003918e+02	6.859999e+00	0	0
1130156	2.194283e+00	-9.444672e+01	4.751386e+01	0	0
1132109	2.194000e+00	-8.326334e+01	1.430194e+01	0	0
1134063	2.194000e+00	-7.481446e+01	-6.079837e+00	0	0
1136016	2.194000e+00	-9.535353e+01	5.557537e+00	0	0
1137969	2.194000e+00	-9.116201e+01	-4.620399e+01	0	0
1139922	2.194000e+00	-9.722924e+01	-2.073306e+01	0	0
1141875	2.194000e+00	-1.027327e+02	-2.266731e+00	0	0
1143828	2.194000e+00	-1.069982e+02	-8.153055e+00	0	0
1145781	2.194000e+00	-1.154150e+02	-4.305706e+00	0	0
1147734	2.194000e+00	-1.103336e+02	-1.075430e+01	0	0
1149688	2.194000e+00	-1.003659e+02	3.425639e+01	0	0
1151641	2.194000e+00	-8.304385e+01	1.075577e+01	0	0
1153594	2.194000e+00	-8.670003e+01	-7.659639e+00	0	0
1155547	2.194000e+00	-8.158249e+01	3.901962e+00	0	0
1157500	2.194000e+00	-8.215087e+01	-3.583797e+01	0	0
1159453	2.194000e+00	-8.086440e+01	-2.981708e+01	0	0
1161406	2.194000e+00	-8.770427e+01	-2.684969e+00	0	0
1163359	2.194000e+00	-8.912811e+01	1.353340e-01	0	0
1165313	2.194000e+00	-7.690580e+01	1.453980e+00	0	0
1167266	2.194000e+00	-6.667839e+01	-5.899104e+00	0	0
1169219	2.194000e+00	-5.306325e+01	3.630146e+01	0	0
1171172	2.194000e+00	-8.157042e+00	1.317221e+01	0	0
1173125	2.194000e+00	3.233486e+01	-5.174089e+00	0	0
1175078	2.194000e+00	4.954823e+01	5.768891e+00	0	0
1177031	2.194000e+00	6.384664e+01	-3.288994e+01	0	0
1178984	2.194000e+00	5.355191e+01	-3.262633e+01	0	0
1180938	2.194000e+00	5.419027e+01	-1.872403e+00	0	0
1182891	2.194000e+00	5.459883e+01	3.462495e+00	0	0
1184844	2.194000e+00	4.070086e+01	3.938622e+00	0	0
1186797	2.194000e+00	3.704707e+01	-1.338002e+00	0	0
1188750	2.194000e+00	5.477342e+01	3.565235e+01	0	0
1190703	2.194000e+00	6.336674e+01	4.239068e+01	0	0
1192656	2.194000e+00	8.229521e+01	7.553312e+00	0	0
1194609	2.194000e+00	9.791382e+01	2.978409e+00	0	0
1196563	2.194000e+00	1.113655e+02	-2.217572e+01	0	0
1198516	2.194000e+00	1.159083e+02	-4.788985e+01	0	0
1200469	2.194000e+00	1.117936e+02	-1.629079e+01	0	0
1202422	2.193279e+00	1.111393e+02	5.334185e-01	0	0
1204375	2.193000e+00	1.168631e+02	7.585783e-02	0	0
1206328	2.193721e+00	1.228033e+02	-2.174252e+00	0	0
1208281	2.194000e+00	1.430558e+02	1.853684e+01	0	0
1210234	2.193279e+00	1.480071e+02	5.057823e+01	0	0
1212188	2.193000e+00	1.467108e+02	1.310797e+01	0	0
1214141	2.193000e+00	1.610185e+02	-4.899756e+00	0	0
1216094	2.193000e+00	1.635355e+02	7.252635e+00	0	0
1218047	2.193000e+00	1.526429e+02	-4.304405e+01	0	0
1220000	2.193000e+00	1.474153e+02	-1.528674e+01	0	0
1221953	2.193000e+00	1.363366e+02	3.786812e+00	0	0
1223906	2.193000e+00	1.170806e+02	-1.469468e+00	0	0
1225859	2.193000e+00	1.278048e+02	2.123920e+00	0	0
1227813	2.193000e+00	1.094669e+02	-6.047586e+00	0	0
1229766	2.193000e+00	9.574272e+01	4.201227e+01	0	0
1231719	2.193000e+00	8.105859e+01	1.555974e+01	0	0
1233672	2.193000e+00	6.073656e+01	-4.866416e+00	0	0
1235625	2.193000e+00	3.298936e+01	6.954023e+00	0	0
1237578	2.193000e+00	2.265975e+01	-3.865468e+01	0	0
1239531	2.193000e+00	7.853764e+00	-2.345420e+01	0	0
1241484	2.193000e+00	-1.712823e+01	5.805425e-01	0	0
1243438	2.193000e+00	-4.447962e+01	-1.566533e-01	0	0
1245391	2.193000e+00	-5.504859e+01	1.890470e+00	0	0
1247344	2.193000e+00	-7.342431e+01	-5.309588e+00	0	0
1249297	2.193000e+00	-8.655737e+01	3.826413e+01	0	0
1251250	2.193000e+00	-7.997785e+01	1.405520e+01	0	0
1253203	2.193000e+00	-7.953875e+01	-4.095147e+00	0	0
1255156	2.193000e+00	-8.830493e+01	5.410689e+00	0	0
1257109	2.193000e+00	-1.005470e+02	-3.213495e+01	0	0
1259063	2.193000e+00	-1.000099e+02	-5.028471e+01	0	0
1261016	2.193000e+00	-1.079208e+02	-9.366505e+00	0	0
1262969	2.193000e+00	-1.153905e+02	2.404206e+00	0	0
1264922	2.193000e+00	-1.275583e+02	1.068163e+00	0	0
1266875	2.193000e+00	-1.267106e+02	-4.434316e+00	0	0
1268828	2.193000e+00	-1.357902e+02	3.644277e+01	0	0
1270781	2.193000e+00	-1.266915e+02	3.660588e+01	0	0
1272734	2.193000e+00	-1.226033e+02	3.995258e+00	0	0
1274688	2.193000e+00	-1.225871e+02	2.019793e+00	0	0
1276641	2.193000e+00	-1.235709e+02	-2.196353e+01	0	0
1278594	2.193000e+00	-1.297269e+02	-5.137002e+01	0	0
1280547	2.193000e+00	-1.263051e+02	-2.132230e+01	0	0
1282500	2.193000e+00	-1.356934e+02	4.762773e-02	0	0
1284453	2.193000e+00	-1.491062e+02	1.104319e+00	0	0
1286406	2.193000e+00	-1.524298e+02	-2.292860e+00	0	0
1288359	2.193000e+00	-1.594305e+02	2.420875e+01	0	0
1290313	2.193000e+00	-1.487527e+02	5.859001e+01	0	0
1292266	2.192273e+00	-1.460443e+02	1.472729e+01	0	0
1294219	2.192000e+00	-1.396845e+02	-4.703551e+00	0	0
1296172	2.192000e+00	-1.384597e+02	7.687376e+00	0	0
1298125	2.192000e+00	-1.558710e+02	-4.507938e+01	0	0
1300078	2.192000e+00	-1.379476e+02	-3.617683e+01	0	0
1302031	2.192000e+00	-1.373454e+02	-2.185894e+00	0	0
1303984	2.192000e+00	-1.524137e+02	5.403970e-01	0	0
1305938	2.192000e+00	-1.560898e+02	2.155972e+00	0	0
1307891	2.192000e+00	-1.513616e+02	-6.274023e+00	0	0
1309844	2.192000e+00	-1.539925e+02	4.706825e+01	0	0
1311797	2.192000e+00	-1.456229e+02	1.720211e+01	0	0
1313750	2.192000e+00	-1.343661e+02	-4.855383e+00	0	0
1315703	2.192000e+00	-1.243564e+02	7.741035e+00	0	0
1317656	2.192000e+00	-1.301704e+02	-4.146603e+01	0	0
1319609	2.192000e+00	-1.476106e+02	-3.456338e+01	0	0
1321563	2.192000e+00	-1.775295e+02	-1.936170e+00	0	0
1323516	2.192000e+00	-2.255370e+02	1.266346e+00	0	0
1325469	2.192000e+00	-2.269189e+02	2.579253e+00	0	0
1327422	2.192000e+00	-2.258212e+02	-5.021063e+00	0	0
1329375	2.192000e+00	-1.909050e+02	4.441219e+01	0	0
1331328	2.192000e+00	-1.133476e+02	1.696642e+01	0	0
1333281	2.192000e+00	-5.188652e+01	-2.315519e+00	0	0
1335234	2.192000e+00	6.645664e+01	6.715455e+00	0	0
1337188	2.192000e+00	1.738421e+02	-2.520007e+01	0	0
1339141	2.192000e+00	3.033131e+02	-5.068025e+01	0	0
1341094	2.192000e+00	5.328538e+02	-8.880062e+00	0	0
1343047	2.192000e+00	8.088792e+02	4.705082e+00	0	0
1345000	2.192000e+00	1.054860e+03	2.781823e+00	0	0
1346953	2.192000e+00	1.317972e+03	-3.461179e+00	0	0
1348906	2.192000e+00	1.581602e+03	4.048382e+01	0	0
1350859	2.192000e+00	1.818018e+03	3.232362e+01	0	0
1352813	2.192000e+00	1.941868e+03	2.292485e+00	0	0
1354766	2.192000e+00	1.881716e+03	6.057237e+00	0	0
1356719	2.192000e+00	1.700137e+03	-3.559454e+01	0	0
1358672	2.192000e+00	1.346464e+03	-4.861435e+01	0	0
1360625	2.192000e+00	1.079740e+03	-1.282757e+01	0	0
1362578	2.192000e+00	8.409801e+02	1.618343e+00	0	0
1364531	2.192000e+00	6.514806e+02	2.665624e+00	0	0
1366484	2.192000e+00	4.017941e+02	-2.046199e+00	0	0
1368438	2.192000e+00	3.491935e+01	3.334999e+01	0	0
1370391	2.192000e+00	-1.791164e+02	6.103675e+01	0	0
1372344	2.192000e+00	-2.445070e+02	1.376593e+01	0	0
1374297	2.192000e+00	-2.632705e+02	-4.483963e+00	0	0
1376250	2.191268e+00	-2.480103e+02	6.689204e+00	0	0
1378203	2.191000e+00	-2.175735e+02	-4.446217e+01	0	0
1380156	2.191000e+00	-1.898456e+02	-3.908182e+01	0	0
1382109	2.191000e+00	-1.492588e+02	-3.709720e+00	0	0
1384063	2.191000e+00	-1.172917e+02	8.273584e-01	0	0
1386016	2.191000e+00	-8.748013e+01	2.773211e+00	0	0
1387969	2.191000e+00	-8.103246e+01	-4.468595e+00	0	0
1389922	2.191000e+00	-6.181859e+01	4.558780e+01	0	0
1391875	2.191000e+00	-5.498006e+01	1.702528e+01	0	0
1393828	2.191000e+00	-4.479693e+01	-3.136235e+00	0	0
1395781	2.191000e+00	-4.119214e+01	8.020943e+00	0	0
1397734	2.191000e+00	-5.909466e+01	-3.558346e+01	0	0
1399688	2.191000e+00	-7.929283e+01	-3.070759e+01	0	0
1401641	2.191000e+00	-5.833654e+01	-1.075353e+00	0	0
1403594	2.191000e+00	-6.892915e+01	2.455221e+00	0	0
1405547	2.191000e+00	-5.572488e+01	3.849103e+00	0	0
1407500	2.191000e+00	-7.219555e+01	-1.836543e+00	0	0
1409453	2.191000e+00	-7.269041e+01	3.898173e+01	0	0
1411406	2.191000e+00	-6.743123e+01	1.617297e+01	0	0
1413359	2.191000e+00	-6.500105e+01	3.529484e-01	0	0
1415313	2.191000e+00	-5.637420e+01	8.769265e+00	0	0
1417266	2.191000e+00	-6.065136e+01	-2.519196e+01	0	0
1419219	2.191000e+00	-5.474549e+01	-4.176757e+01	0	0
1421172	2.191000e+00	-5.672886e+01	-5.482136e+00	0	0
1423125	2.191000e+00	-5.903464e+01	3.873923e+00	0	0
1425078	2.191000e+00	-6.896037e+01	2.487432e+00	0	0
1427031	2.191000e+00	-6.280751e+01	-2.174270e+00	0	0
1428984	2.191000e+00	-5.479580e+01	3.354519e+01	0	0
1430938	2.191000e+00	-5.274415e+01	3.212836e+01	0	0
1432891	2.191000e+00	-5.193899e+01	4.063090e+00	0	0
1434844	2.191000e+00	-3.380305e+01	5.224545e+00	0	0
1436797	2.191000e+00	-2.628587e+01	-2.979146e+01	0	0
1438750	2.191000e+00	-2.782125e+01	-3.949131e+01	0	0
1440703	2.191000e+00	-4.859088e+01	-5.640547e+00	0	0
1442656	2.191000e+00	-4.287464e+01	1.662278e+00	0	0
1444609	2.191000e+00	-3.920204e+01	8.628468e-01	0	0
1446563	2.191000e+00	-4.989804e+01	-3.802990e+00	0	0
1448516	2.191000e+00	-3.985945e+01	3.515841e+01	0	0
1450469	2.191000e+00	-2.516914e+01	5.652920e+01	0	0
1452422	2.191000e+00	-2.585051e+01	1.251194e+01	0	0
1454375	2.191000e+00	-1.461040e+01	-2.190261e+00	0	0
1456328	2.191000e+00	-8.599399e-01	7.289042e+00	0	0
1458281	2.190263e+00	5.998183e+00	-3.681169e+01	0	0
1460234	2.190000e+00	-4.917114e+00	-4.681298e+01	0	0
1462188	2.190000e+00	-1.463234e+01	-5.985003e+00	0	0
1464141	2.190000e+00	-1.193255e+01	3.160984e+00	0	0
1466094	2.190000e+00	-2.166226e+01	3.249215e+00	0	0
1468047	2.190000e+00	-2.286851e+01	-3.896092e+00	0	0
1470000	2.190737e+00	-5.218347e+00	4.486118e+01	0	0
1471953	2.190263e+00	-1.952769e-01	1.606821e+01	0	0
1473906	2.190000e+00	1.625847e+01	-3.588602e+00	0	0
1475859	2.190000e+00	1.952300e+01	7.889360e+00	0	0
1477813	2.190000e+00	2.486537e+01	-3.843749e+01	0	0
1479766	2.190000e+00	2.257343e+01	-2.318709e+01	0	0
1481719	2.190000e+00	2.441212e+01	1.149150e+00	0	0
1483672	2.190000e+00	1.950979e+01	9.795569e-01	0	0
1485625	2.190000e+00	2.566058e+01	2.321688e+00	0	0
1487578	2.190000e+00	3.591119e+01	-5.295488e+00	0	0
1489531	2.190000e+00	3.996789e+01	3.645411e+01	0	0
1491484	2.190000e+00	3.895685e+01	1.322428e+01	0	0
1493438	2.190000e+00	2.979923e+01	-2.955777e+00	0	0
1495391	2.190000e+00	4.006536e+01	6.274475e+00	0	0
1497344	2.190000e+00	5.178671e+01	-3.193397e+01	0	0
1499297	2.190000e+00	4.820138e+01	-3.013971e+01	0	0
1501250	2.190000e+00	4.262237e+01	-2.374954e+00	0	0
1503203	2.190000e+00	5.492068e+01	1.460848e+00	0	0
1505156	2.190000e+00	5.992018e+01	2.035246e+00	0	0
1507109	2.190000e+00	5.788588e+01	-3.908819e+00	0	0
1509063	2.190000e+00	6.690073e+01	3.637937e+01	0	0
1511016	2.190000e+00	7.995691e+01	2.495095e+01	0	0
1512969	2.190000e+00	7.936317e+01	9.190576e-01	0	0
1514922	2.190000e+00	8.796570e+01	5.893348e+00	0	0
1516875	2.190000e+00	9.341779e+01	-3.347236e+01	0	0
1518828	2.190000e+00	9.108098e+01	-4.229637e+01	0	0
1520781	2.190000e+00	8.555789e+01	-2.335443e+01	0	0
1522734	2.190000e+00	1.035166e+02	-3.078376e+00	0	0
1524688	2.190000e+00	9.649124e+01	2.073298e+00	0	0
1526641	2.190000e+00	1.034027e+02	-2.094235e+00	0	0
1528594	2.190000e+00	1.049278e+02	2.285791e+01	0	0
1530547	2.190000e+00	1.225021e+02	5.378970e+01	0	0
1532500	2.190000e+00	1.337926e+02	1.266643e+01	0	0
1534453	2.189259e+00	1.411463e+02	-5.020801e+00	0	0
1536406	2.189741e+00	1.505429e+02	5.579579e+00	0	0
1538359	2.190000e+00	1.448224e+02	-4.205662e+01	0	0
1540313	2.190000e+00	1.596636e+02	-3.862394e+01	0	0
1542266	2.190000e+00	1.667092e+02	-3.589488e+00	0	0
1544219	2.189258e+00	1.663191e+02	1.037077e+00	0	0
1546172	2.189742e+00	1.718428e+02	1.998873e+00	0	0
1548125	2.190000e+00	1.841613e+02	-5.980375e+00	0	0
1550078	2.189258e+00	2.002345e+02	4.686627e+01	0	0
1552031	2.189000e+00	2.072240e+02	1.827685e+01	0	0
1553984	2.189000e+00	2.204999e+02	-2.623952e+00	0	0
1555938	2.189000e+00	2.368698e+02	7.443182e+00	0	0
1557891	2.189000e+00	2.509729e+02	-4.029097e+01	0	0
1559844	2.189000e+00	2.487831e+02	-1.558406e+01	0	0
1561797	2.189000e+00	2.550734e+02	3.050867e+00	0	0
1563750	2.189000e+00	2.759818e+02	-1.934624e+00	0	0
1565703	2.189000e+00	2.746985e+02	-1.315415e+00	0	0
1567656	2.189000e+00	2.980722e+02	-7.222766e+00	0	0
1569609	2.189000e+00	3.106342e+02	3.064000e+01	0	0
1571563	2.189000e+00	3.308782e+02	1.112878e+01	0	0
1573516	2.189000e+00	3.500495e+02	-3.294558e+00	0	0
1575469	2.189000e+00	3.460824e+02	3.838371e+00	0	0
1577422	2.189000e+00	3.574756e+02	-2.669104e+01	0	0
1579375	2.189000e+00	3.701106e+02	-2.993628e+01	0	0
1581328	2.189000e+00	3.732504e+02	-1.922588e+00	0	0
1583281	2.189000e+00	3.824772e+02	3.995410e+00	0	0
1585234	2.189000e+00	4.099230e+02	3.737720e+00	0	0
1587188	2.189000e+00	4.088660e+02	-1.498790e+00	0	0
1589141	2.189000e+00	4.122698e+02	2.955468e+01	0	0
1591094	2.189000e+00	4.406408e+02	2.984775e+01	0	0
1593047	2.189000e+00	4.489523e+02	2.960501e+00	0	0
1595000	2.189000e+00	4.683566e+02	3.964727e+00	0	0
1596953	2.189000e+00	4.748401e+02	-3.100379e+01	0	0
1598906	2.189000e+00	4.863306e+02	-2.692984e+01	0	0
1600859	2.189000e+00	4.848145e+02	-1.224564e+01	0	0
1602813	2.189000e+00	4.930657e+02	-2.120767e+00	0	0
1604766	2.189000e+00	4.980165e+02	2.682727e+00	0	0
1606719	2.189000e+00	4.884483e+02	-2.241547e+00	0	0
1608672	2.189000e+00	4.994503e+02	3.181349e+01	0	0
1610625	2.189000e+00	5.190066e+02	5.171250e+01	0	0
1612578	2.189000e+00	5.320213e+02	1.102147e+01	0	0
1614531	2.189000e+00	5.356236e+02	-7.109597e-01	0	0
1616484	2.189000e+00	5.495741e+02	9.255733e+00	0	0
1618438	2.189000e+00	5.276254e+02	-3.622523e+01	0	0
1620391	2.189000e+00	5.076228e+02	-4.170899e+01	0	0
1622344	2.189000e+00	5.004639e+02	-3.538827e+00	0	0
1624297	2.189000e+00	4.766308e+02	3.231779e+00	0	0
1626250	2.189000e+00	4.509097e+02	4.410335e+00	0	0
1628203	2.189000e+00	4.354858e+02	-3.464667e+00	0	0
1630156	2.189000e+00	4.105829e+02	5.168811e+01	0	0
1632109	2.188253e+00	3.910832e+02	1.674226e+01	0	0
1634063	2.188748e+00	3.796391e+02	-5.066132e+00	0	0
1636016	2.188252e+00	3.504475e+02	8.455414e+00	0	0
1637969	2.188000e+00	3.228850e+02	-4.755427e+01	0	0
1639922	2.188000e+00	2.804404e+02	-1.428607e+01	0	0
1641875	2.188000e+00	2.533125e+02	1.622312e+00	0	0
1643828	2.188748e+00	2.121960e+02	-5.512315e+00	0	0
1645781	2.188252e+00	1.991351e+02	-2.079375e+00	0	0
1647734	2.188000e+00	1.694078e+02	-9.239345e+00	0	0
1649688	2.188000e+00	1.447060e+02	3.371118e+01	0	0
1651641	2.188000e+00	1.345117e+02	1.245467e+01	0	0
1653594	2.188000e+00	1.147205e+02	-5.578236e+00	0	0
1655547	2.188000e+00	9.319080e+01	2.932497e+00	0	0
1657500	2.188000e+00	8.067872e+01	-3.124855e+01	0	0
1659453	2.188000e+00	6.108654e+01	-3.057038e+01	0	0
1661406	2.188000e+00	3.536968e+01	-3.356753e+00	0	0
1663359	2.188000e+00	3.051704e+01	7.710391e-01	0	0
1665313	2.188000e+00	1.303988e+01	1.102634e+00	0	0
1667266	2.188000e+00	5.621099e+00	-4.184900e+00	0	0
1669219	2.188000e+00	-2.257922e+00	3.210985e+01	0	0
1671172	2.188000e+00	-4.719848e+00	1.533024e+01	0	0
1673125	2.188000e+00	-1.596789e+01	-2.014604e+00	0	0
1675078	2.188000e+00	-1.133608e+01	3.994193e+00	0	0
1677031	2.188000e+00	-2.448173e+01	-3.038008e+01	0	0
1678984	2.188000e+00	-3.019902e+01	-3.733963e+01	0	0
1680938	2.188000e+00	-2.901886e+01	-1.328393e+01	0	0
1682891	2.188000e+00	-3.287372e+01	-5.142196e-01	0	0
1684844	2.188000e+00	-3.662644e+01	2.588860e+00	0	0
1686797	2.188000e+00	-4.218011e+01	-2.587721e+00	0	0
1688750	2.188000e+00	-4.367430e+01	3.874143e+01	0	0
1690703	2.188000e+00	-3.246335e+01	5.021355e+01	0	0
1692656	2.188000e+00	-3.586522e+01	1.172010e+01	0	0
1694609	2.188000e+00	-1.429527e+01	2.886572e+00	0	0
1696563	2.188000e+00	-2.913802e+01	2.204409e+00	0	0
1698516	2.188000e+00	-4.677003e+01	-4.203946e+01	0	0
1700469	2.188000e+00	-3.873601e+01	-4.438409e+01	0	0
1702422	2.188000e+00	-4.220992e+01	-3.609356e+00	0	0
1704375	2.188000e+00	-6.425928e+01	3.037392e+00	0	0
1706328	2.188000e+00	-6.733953e+01	1.734843e+00	0	0
1708281	2.188000e+00	-5.692948e+01	-7.719835e+00	0	0
1710234	2.188000e+00	-6.116705e+01	5.370505e+01	0	0
1712188	2.188000e+00	-5.369342e+01	1.631378e+01	0	0
1714141	2.188000e+00	-5.994577e+01	-6.718163e+00	0	0
1716094	2.188000e+00	-5.379818e+01	7.984730e+00	0	0
1718047	2.188000e+00	-5.033287e+01	-5.494013e+01	0	0
1720000	2.188000e+00	-5.552138e+01	-1.875714e+01	0	0
1721953	2.187247e+00	-6.281159e+01	-8.244707e-01	0	0
1723906	2.187000e+00	-6.642826e+01	-7.226257e+00	0	0
1725859	2.187000e+00	-6.775385e+01	-2.542196e+00	0	0
1727813	2.187000e+00	-7.197799e+01	-9.808882e+00	0	0
1729766	2.187000e+00	-7.644133e+01	4.020334e+01	0	0
1731719	2.187000e+00	-6.066181e+01	1.139832e+01	0	0
1733672	2.187000e+00	-5.053983e+01	-6.228561e+00	0	0
1735625	2.187000e+00	-5.653371e+01	4.011662e+00	0	0
1737578	2.187000e+00	-5.694305e+01	-3.810332e+01	0	0
1739531	2.187000e+00	-5.924276e+01	-3.076226e+01	0	0
1741484	2.187000e+00	-6.294402e+01	-3.266389e+00	0	0
1743438	2.187000e+00	-5.893293e+01	-6.534006e-01	0	0
1745391	2.187000e+00	-7.223769e+01	1.869457e-01	0	0
1747344	2.187000e+00	-6.682215e+01	-5.646961e+00	0	0
1749297	2.187000e+00	-6.358053e+01	3.506746e+01	0	0
1751250	2.187000e+00	-4.832855e+01	2.384890e+01	0	0
1753203	2.187000e+00	-5.650690e+01	-1.214071e+00	0	0
1755156	2.187000e+00	-3.985644e+01	3.352648e+00	0	0
1757109	2.187000e+00	-3.133757e+01	-3.643547e+01	0	0
1759063	2.187000e+00	-5.042341e+01	-3.292260e+01	0	0
1761016	2.187000e+00	-4.655020e+01	-1.425940e+01	0	0
1762969	2.187000e+00	-4.767431e+01	-2.339982e+00	0	0
1764922	2.187000e+00	-5.329635e+01	2.012394e+00	0	0
1766875	2.187000e+00	-5.947288e+01	-4.416515e+00	0	0
1768828	2.187000e+00	-4.728497e+01	3.786619e+01	0	0
1770781	2.187000e+00	-4.434024e+01	5.068863e+01	0	0
1772734	2.187000e+00	-2.715638e+01	7.854099e+00	0	0
1774688	2.187000e+00	-2.408467e+01	-2.866241e+00	0	0
1776641	2.187000e+00	-2.877853e+01	-4.034003e+00	0	0
1778594	2.187000e+00	-2.352363e+01	-4.979721e+01	0	0
1780547	2.187000e+00	-2.642838e+01	-3.300056e+01	0	0
1782500	2.187000e+00	-3.602294e+01	-3.427520e+00	0	0
1784453	2.187000e+00	-3.091638e+01	-1.402960e+00	0	0
1786406	2.187000e+00	-3.268037e+01	-7.627188e-01	0	0
1788359	2.187000e+00	-3.711688e+01	-2.004415e+00	0	0
1790313	2.187000e+00	-3.426369e+01	5.161692e+01	0	0
1792266	2.187000e+00	-2.740683e+01	1.342542e+01	0	0
1794219	2.187000e+00	-2.252603e+01	-7.272236e+00	0	0
1796172	2.187000e+00	-1.008273e+01	6.006177e+00	0	0
1798125	2.187000e+00	-1.981837e+01	-5.241169e+01	0	0
1800078	2.187000e+00	-3.675023e+01	-1.722429e+01	0	0
1802031	2.187000e+00	-3.245233e+01	-6.753876e-01	0	0
1803984	2.187000e+00	-3.867365e+01	-6.924253e+00	0	0
1805938	2.186243e+00	-3.636458e+01	-3.259551e+00	0	0
1807891	2.186000e+00	-4.676179e+01	-9.000666e+00	0	0
1809844	2.186000e+00	-3.998455e+01	3.714184e+01	0	0
1811797	2.186000e+00	-3.718845e+01	8.929271e+00	0	0
1813750	2.186000e+00	-2.998791e+01	-6.942455e+00	0	0
1815703	2.186758e+00	-2.045278e+01	2.598888e+00	0	0
1817656	2.186242e+00	-2.749750e+01	-3.554565e+01	0	0
1819609	2.186000e+00	-3.810678e+01	-3.307483e+01	0	0
1821563	2.186000e+00	-3.430766e+01	-4.926939e+00	0	0
1823516	2.186000e+00	-3.672783e+01	-1.057229e+00	0	0
1825469	2.186000e+00	-4.022641e+01	-5.738887e-01	0	0
1827422	2.186000e+00	-3.139762e+01	-5.840323e+00	0	0
1829375	2.186000e+00	-3.096682e+01	3.224781e+01	0	0
1831328	2.186000e+00	-3.031051e+01	1.964756e+01	0	0
1833281	2.186000e+00	-3.492762e+01	-1.831709e+00	0	0
1835234	2.186000e+00	-2.047862e+01	2.827515e+00	0	0
1837188	2.186000e+00	-2.731725e+01	-3.183622e+01	0	0
1839141	2.186000e+00	-4.219587e+01	-4.113972e+01	0	0
1841094	2.186000e+00	-4.226923e+01	-5.984674e+00	0	0
1843047	2.186000e+00	-3.702963e+01	1.522933e+00	0	0
1845000	2.186000e+00	-4.625058e+01	1.117705e+00	0	0
1846953	2.186000e+00	-4.306480e+01	-4.393553e+00	0	0
1848906	2.186000e+00	-4.159181e+01	3.675827e+01	0	0
1850859	2.186000e+00	-4.229990e+01	3.015168e+01	0	0
1852813	2.186000e+00	-3.160953e+01	1.847827e+00	0	0
1854766	2.186000e+00	-3.238429e+01	-1.474351e+00	0	0
1856719	2.186000e+00	-3.464303e+01	-7.820901e+00	0	0
1858672	2.186000e+00	-3.130479e+01	-4.776069e+01	0	0
1860625	2.186000e+00	-3.972599e+01	-2.874072e+01	0	0
1862578	2.186000e+00	-3.744602e+01	-2.555136e+00	0	0
1864531	2.186000e+00	-4.278015e+01	-1.112153e+00	0	0
1866484	2.186000e+00	-4.959720e+01	-6.544611e-01	0	0
1868438	2.186000e+00	-3.454943e+01	8.974978e-02	0	0
1870391	2.186000e+00	-3.553887e+01	5.141606e+01	0	0
1872344	2.186000e+00	-2.944114e+01	1.295029e+01	0	0
1874297	2.186000e+00	-2.930519e+01	-6.989170e+00	0	0
1876250	2.186000e+00	-2.673034e+01	5.578319e+00	0	0
1878203	2.186000e+00	-2.373901e+01	-5.388967e+01	0	0
1880156	2.186000e+00	-3.418568e+01	-1.888844e+01	0	0
1882109	2.186000e+00	-3.850657e+01	-1.651842e+00	0	0
1884063	2.186000e+00	-4.280271e+01	-6.769010e+00	0	0
1886016	2.186000e+00	-4.500228e+01	-4.540023e+00	0	0
1887969	2.186000e+00	-4.334587e+01	-3.196447e+00	0	0
1889922	2.186000e+00	-3.567814e+01	4.221968e+01	0	0
1891875	2.186000e+00	-3.853995e+01	9.820317e+00	0	0
1893828	2.186000e+00	-3.295412e+01	-5.831562e+00	0	0
1895781	2.186000e+00	-2.939896e+01	4.231003e+00	0	0
1897734	2.186000e+00	-4.048914e+01	-3.920451e+01	0	0
1899688	2.186000e+00	-4.035541e+01	-3.330058e+01	0	0
1901641	2.186000e+00	-6.048332e+01	-3.847453e+00	0	0
1903594	2.186000e+00	-5.001186e+01	-5.410489e-01	0	0
1905547	2.186000e+00	-6.126642e+01	7.286650e-01	0	0
1907500	2.186000e+00	-6.508269e+01	-4.741505e+00	0	0
1909453	2.186000e+00	-5.406636e+01	3.955933e+01	0	0
1911406	2.186000e+00	-5.468378e+01	1.666368e+01	0	0
1913359	2.185237e+00	-4.716474e+01	-8.850767e-01	0	0
1915313	2.185000e+00	-3.696824e+01	7.440725e+00	0	0
1917266	2.185763e+00	-3.753561e+01	-3.317888e+01	0	0
1919219	2.185237e+00	-4.875198e+01	-3.441876e+01	0	0
1921172	2.185000e+00	-4.838819e+01	-9.098177e+00	0	0
1923125	2.185000e+00	-4.447396e+01	2.424178e+00	0	0
1925078	2.185000e+00	-4.183612e+01	5.641569e+00	0	0
1927031	2.185000e+00	-5.192457e+01	-8.564442e-01	0	0
1928984	2.185000e+00	-4.400481e+01	4.506610e+01	0	0
1930938	2.185000e+00	-5.588701e+01	3.285656e+01	0	0
1932891	2.185000e+00	-4.928076e+01	5.864140e+00	0	0
1934844	2.185000e+00	-5.078205e+01	5.429743e+00	0	0
1936797	2.185000e+00	-5.253392e+01	-1.173665e+01	0	0
1938750	2.185000e+00	-5.374323e+01	-4.730074e+01	0	0
1940703	2.185000e+00	-5.739355e+01	-3.245452e+01	0	0
1942656	2.185000e+00	-5.490025e+01	-3.315807e+00	0	0
1944609	2.185000e+00	-5.747799e+01	-1.744997e-02	0	0
1946563	2.185000e+00	-5.495089e+01	-1.049117e+00	0	0
1948516	2.185000e+00	-5.430249e+01	5.512772e+00	0	0
1950469	2.185000e+00	-4.829937e+01	5.372094e+01	0	0
1952422	2.185000e+00	-4.599280e+01	1.292857e+01	0	0
1954375	2.185000e+00	-4.542359e+01	-6.117476e+00	0	0
1956328	2.185000e+00	-4.468577e+01	5.410406e+00	0	0
1958281	2.185000e+00	-4.105166e+01	-5.190507e+01	0	0
1960234	2.185000e+00	-4.510889e+01	-2.645277e+01	0	0
1962188	2.185000e+00	-3.742949e+01	-1.806664e+00	0	0
1964141	2.185000e+00	-4.000943e+01	-2.891120e+00	0	0
1966094	2.185000e+00	-4.965009e+01	5.382772e-01	0	0
1968047	2.185000e+00	-4.696128e+01	-5.834868e+00	0	0
1970000	2.185000e+00	-3.140986e+01	4.502797e+01	0	0
1971953	2.185000e+00	-1.920306e+01	1.440928e+01	0	0
1973906	2.185000e+00	-3.143637e+00	-2.272437e+00	0	0
1975859	2.185000e+00	1.735895e+01	7.563835e+00	0	0
1977813	2.185000e+00	5.264514e+01	-3.543801e+01	0	0
1979766	2.185000e+00	8.097416e+01	-3.440573e+01	0	0
1981719	2.185000e+00	8.908783e+01	-1.325643e+00	0	0
1983672	2.185000e+00	9.545408e+01	3.902521e+00	0	0
1985625	2.185000e+00	9.417365e+01	4.871191e+00	0	0
1987578	2.185000e+00	1.033334e+02	-1.147101e+00	0	0
1989531	2.185000e+00	9.632550e+01	4.473248e+01	0	0
1991484	2.185000e+00	1.027421e+02	1.625718e+01	0	0
1993438	2.185000e+00	1.066670e+02	1.286468e+00	0	0
1995391	2.185000e+00	1.159704e+02	1.070876e+01	0	0
1997344	2.185000e+00	1.386556e+02	-2.985370e+01	0	0
1999297	2.185000e+00	1.369840e+02	-4.185241e+01	0	0
2001250	2.185000e+00	1.352816e+02	-4.642694e+00	0	0
2003203	2.185000e+00	1.498130e+02	7.265636e+00	0	0
2005156	2.185000e+00	1.490594e+02	7.857535e+00	0	0
2007109	2.185000e+00	1.333514e+02	1.321609e+00	0	0
2009063	2.185000e+00	1.452674e+02	4.738213e+01	0	0
2011016	2.185000e+00	1.701126e+02	3.671380e+01	0	0
2012969	2.185000e+00	1.964343e+02	5.829307e+00	0	0
2014922	2.185000e+00	2.213759e+02	7.959024e+00	0	0
2016875	2.185000e+00	2.209065e+02	-3.064038e+01	0	0
2018828	2.185000e+00	2.008780e+02	-5.108783e+01	0	0
2020781	2.185000e+00	1.890375e+02	-3.829772e+01	0	0
2022734	2.185000e+00	1.757994e+02	-1.895943e+00	0	0
2024688	2.185000e+00	1.845482e+02	7.018944e+00	0	0
2026641	2.185000e+00	1.716520e+02	3.067143e+00	0	0
2028594	2.185000e+00	1.639157e+02	2.478043e+01	0	0
2030547	2.185000e+00	1.619056e+02	6.404268e+01	0	0
2032500	2.185000e+00	1.662642e+02	1.623694e+01	0	0
2034453	2.184231e+00	1.704330e+02	-3.128843e+00	0	0
2036406	2.184769e+00	1.556770e+02	8.351242e+00	0	0
2038359	2.185000e+00	1.223096e+02	-5.294876e+01	0	0
2040313	2.185000e+00	1.046420e+02	-2.356828e+01	0	0
2042266	2.185000e+00	7.790863e+01	-4.325650e+00	0	0
2044219	2.185000e+00	4.977657e+01	-6.788312e+00	0	0
2046172	2.184230e+00	3.785404e+01	-7.378910e-01	0	0
2048125	2.184770e+00	1.208250e+01	-3.629153e+00	0	0
2050078	2.185000e+00	4.705074e+00	4.692848e+01	0	0
2052031	2.185000e+00	-9.868122e+00	1.581446e+01	0	0
2053984	2.185000e+00	-1.438718e+01	1.867458e+00	0	0
2055938	2.184229e+00	-2.354246e+01	1.434584e+01	0	0
2057891	2.184771e+00	-2.128317e+01	-2.503331e+01	0	0
2059844	2.185000e+00	-4.169228e+01	-3.740218e+01	0	0
2061797	2.184229e+00	-5.331845e+01	9.838238e-01	0	0
2063750	2.184000e+00	-7.065025e+01	6.164500e+00	0	0
2065703	2.184000e+00	-7.383987e+01	4.904941e+00	0	0
2067656	2.184771e+00	-8.209183e+01	-7.358282e-01	0	0
2069609	2.185000e+00	-8.020324e+01	4.647237e+01	0	0
2071563	2.185000e+00	-6.845321e+01	1.706005e+01	0	0
2073516	2.184228e+00	-6.155222e+01	4.520902e-01	0	0
2075469	2.184000e+00	-5.781673e+01	7.767104e+00	0	0
2077422	2.184000e+00	-6.380818e+01	-3.844640e+01	0	0
2079375	2.184772e+00	-6.931715e+01	-4.135407e+01	0	0
2081328	2.184228e+00	-7.683671e+01	-4.773829e+00	0	0
2083281	2.184000e+00	-8.364030e+01	1.020228e+00	0	0
2085234	2.184000e+00	-8.967029e+01	2.107487e+00	0	0
2087188	2.184000e+00	-9.783486e+01	-3.353404e+00	0	0
2089141	2.184000e+00	-1.091611e+02	4.800702e+01	0	0
2091094	2.184000e+00	-9.495573e+01	3.086535e+01	0	0
2093047	2.184000e+00	-9.430360e+01	3.426993e+00	0	0
2095000	2.184000e+00	-9.648930e+01	6.784478e+00	0	0
2096953	2.184000e+00	-8.873105e+01	-2.681133e+01	0	0
2098906	2.184000e+00	-9.046674e+01	-5.191444e+01	0	0
2100859	2.184000e+00	-1.020610e+02	-3.810042e+01	0	0
2102813	2.184000e+00	-1.083868e+02	-3.443040e-01	0	0
2104766	2.184000e+00	-1.194884e+02	8.188502e+00	0	0
2106719	2.184000e+00	-1.134033e+02	4.711112e+00	0	0
2108672	2.184000e+00	-1.203156e+02	2.428343e+01	0	0
2110625	2.184000e+00	-1.199653e+02	6.343246e+01	0	0
2112578	2.184000e+00	-9.515252e+01	1.588295e+01	0	0
2114531	2.184000e+00	-8.365536e+01	-1.945159e+00	0	0
2116484	2.184000e+00	-9.294548e+01	9.661424e+00	0	0
2118438	2.184000e+00	-9.546908e+01	-4.726759e+01	0	0
2120391	2.184000e+00	-1.080865e+02	-3.080732e+01	0	0
2122344	2.184000e+00	-8.804952e+01	-1.592852e+00	0	0
2124297	2.184000e+00	-9.281284e+01	-7.699406e-01	0	0
2126250	2.184774e+00	-1.082785e+02	2.215238e+00	0	0
2128203	2.184226e+00	-1.326738e+02	-3.951944e+00	0	0
2130156	2.184000e+00	-1.602544e+02	4.821561e+01	0	0
2132109	2.184000e+00	-1.672348e+02	1.457831e+01	0	0
2134063	2.184000e+00	-1.637716e+02	-2.470012e+00	0	0
2136016	2.184000e+00	-1.219345e+02	8.468689e+00	0	0
2137969	2.184000e+00	-5.472740e+01	-3.661476e+01	0	0
2139922	2.184000e+00	3.514956e+01	-3.425492e+01	0	0
2141875	2.184000e+00	1.234490e+02	1.321464e-01	0	0
2143828	2.184000e+00	2.200526e+02	4.284873e+00	0	0
2145781	2.184000e+00	3.641025e+02	3.989413e+00	0	0
2147734	2.184000e+00	6.197062e+02	-3.459813e+00	0	0
2149688	2.184000e+00	8.945779e+02	4.582771e+01	0	0
2151641	2.184000e+00	1.137560e+03	1.390531e+01	0	0
2153594	2.184000e+00	1.405212e+03	-1.977403e+00	0	0
2155547	2.184000e+00	1.651471e+03	7.144413e+00	0	0
2157500	2.184000e+00	1.874769e+03	-3.641563e+01	0	0
2159453	2.184000e+00	1.923980e+03	-4.773096e+01	0	0
2161406	2.184000e+00	1.821849e+03	-4.973770e+00	0	0
2163359	2.184000e+00	1.617731e+03	3.690564e+00	0	0
2165313	2.184777e+00	1.264143e+03	2.995523e+00	0	0
2167266	2.184223e+00	1.021016e+03	-1.986815e+00	0	0
2169219	2.184000e+00	8.147046e+02	4.088301e+01	0	0
2171172	2.184000e+00	6.420562e+02	4.040538e+01	0	0
2173125	2.184000e+00	3.590848e+02	6.247715e+00	0	0
2175078	2.184000e+00	1.789127e+01	4.070955e+00	0	0
2177031	2.184000e+00	-1.578687e+02	-2.074129e+01	0	0
2178984	2.184000e+00	-2.250712e+02	-4.663305e+01	0	0
2180938	2.184000e+00	-2.396070e+02	-9.197479e+00	0	0
2182891	2.184000e+00	-2.379125e+02	4.130358e+00	0	0
2184844	2.184777e+00	-1.978613e+02	2.963227e+00	0	0
2186797	2.184222e+00	-1.469537e+02	1.056755e+00	0	0
2188750	2.184000e+00	-1.157883e+02	2.510192e+01	0	0
2190703	2.184000e+00	-8.462521e+01	5.613026e+01	0	0
2192656	2.184000e+00	-5.101651e+01	1.350151e+01	0	0
2194609	2.184000e+00	-3.087076e+01	-7.691940e-01	0	0
2196563	2.184000e+00	-1.970359e+01	8.843734e+00	0	0
2198516	2.184778e+00	-3.179139e+01	-4.071551e+01	0	0
2200469	2.184222e+00	-3.474614e+01	-4.175162e+01	0	0
2202422	2.184778e+00	-4.935901e+01	-1.960683e+00	0	0
2204375	2.185000e+00	-4.940701e+01	4.058736e+00	0	0
2206328	2.185000e+00	-5.514048e+01	4.480815e+00	0	0
2208281	2.185000e+00	-4.720198e+01	-2.963253e+00	0	0
2210234	2.184221e+00	-3.621302e+01	5.143695e+01	0	0
2212188	2.184779e+00	-4.116754e+01	1.591219e+01	0	0
2214141	2.184221e+00	-4.237004e+01	-1.619574e+00	0	0
2216094	2.184779e+00	-4.473759e+01	9.329872e+00	0	0
2218047	2.184221e+00	-4.715155e+01	-4.168113e+01	0	0
2220000	2.184779e+00	-4.700725e+01	-2.734892e+01	0	0
2221953	2.185000e+00	-5.684430e+01	1.939576e+00	0	0
2223906	2.185000e+00	-5.655100e+01	3.540652e+00	0	0
2225859	2.185000e+00	-5.236904e+01	4.589040e+00	0	0
2227813	2.185000e+00	-4.353246e+01	-2.361287e+00	0	0
2229766	2.185000e+00	-4.197862e+01	4.436013e+01	0	0
2231719	2.185000e+00	-3.158027e+01	1.370183e+01	0	0
2233672	2.185000e+00	-2.780505e+01	-9.566174e-01	0	0
2235625	2.185000e+00	-2.676299e+01	7.072919e+00	0	0
2237578	2.185000e+00	-1.496598e+01	-3.176262e+01	0	0
2239531	2.185000e+00	-2.507039e+01	-4.559729e+01	0	0
2241484	2.185000e+00	-3.137803e+01	-4.790443e+00	0	0
2243438	2.185000e+00	-4.084753e+01	3.745481e+00	0	0
2245391	2.185000e+00	-3.168194e+01	2.707335e+00	0	0
2247344	2.185000e+00	-3.870433e+01	-1.751528e+00	0	0
2249297	2.185000e+00	-2.983213e+01	3.632642e+01	0	0
2251250	2.185000e+00	-3.715928e+01	4.011753e+01	0	0
2253203	2.185000e+00	-1.850363e+01	5.468446e+00	0	0
2255156	2.185000e+00	-4.285382e+00	4.524280e+00	0	0
2257109	2.185000e+00	-1.365907e+01	-3.369447e+01	0	0
2259063	2.185000e+00	-1.339268e+01	-4.332134e+01	0	0
2261016	2.185000e+00	-8.513320e+00	-1.648079e+01	0	0
2262969	2.185000e+00	-9.466035e+00	1.835850e-02	0	0
2264922	2.185000e+00	-1.911132e+01	2.063825e+00	0	0
2266875	2.185000e+00	-1.165732e+01	-5.782923e-01	0	0
2268828	2.185000e+00	-1.539852e+01	2.126893e+01	0	0
2270781	2.185000e+00	-5.712082e+00	5.499837e+01	0	0
2272734	2.185000e+00	-5.119068e+00	1.174549e+01	0	0
2274688	2.185000e+00	4.328303e+00	-2.961555e+00	0	0
2276641	2.185000e+00	5.524675e+00	6.975748e+00	0	0
2278594	2.185000e+00	1.510176e+01	-4.498050e+01	0	0
2280547	2.185000e+00	2.994008e+01	-4.157472e+01	0	0
2282500	2.185000e+00	2.159052e+01	-3.335836e+00	0	0
2284453	2.185000e+00	2.160703e+01	1.530378e+00	0	0
2286406	2.185000e+00	2.814379e+01	2.257197e+00	0	0
2288359	2.185000e+00	2.730315e+01	-5.352694e+00	0	0
2290313	2.185000e+00	2.665509e+01	5.046625e+01	0	0
2292266	2.185000e+00	2.402246e+01	1.364676e+01	0	0
2294219	2.185000e+00	3.711909e+01	-3.941551e+00	0	0
2296172	2.185000e+00	5.647365e+01	7.191178e+00	0	0
2298125	2.185000e+00	4.350469e+01	-4.608747e+01	0	0
2300078	2.185000e+00	4.705167e+01	-2.619076e+01	0	0
2302031	2.185000e+00	4.874219e+01	1.322336e-01	0	0
2303984	2.185000e+00	4.114245e+01	3.496207e-01	0	0
2305938	2.185000e+00	4.813366e+01	1.998763e+00	0	0
2307891	2.185784e+00	5.684927e+01	-4.803682e+00	0	0
2309844	2.185216e+00	7.391238e+01	4.333735e+01	0	0
2311797	2.185000e+00	6.264623e+01	1.157488e+01	0	0
2313750	2.185000e+00	8.404741e+01	-3.631210e+00	0	0
2315703	2.185000e+00	9.092060e+01	5.503326e+00	0	0
2317656	2.185784e+00	9.460423e+01	-3.789938e+01	0	0
2319609	2.186000e+00	9.559226e+01	-2.038724e+01	0	0
2321563	2.186000e+00	9.757181e+01	-5.286021e-02	0	0
2323516	2.186000e+00	9.520408e+01	-1.835924e-01	0	0
2325469	2.186000e+00	1.013907e+02	1.046157e+00	0	0
2327422	2.186000e+00	9.772020e+01	-3.577961e+00	0	0
2329375	2.186000e+00	1.045445e+02	3.296003e+01	0	0
2331328	2.186000e+00	1.229834e+02	3.384478e+01	0	0
2333281	2.186000e+00	1.153308e+02	3.043743e+00	0	0
2335234	2.186000e+00	1.448198e+02	3.034908e+00	0	0
2337188	2.186000e+00	1.436726e+02	-3.271683e+01	0	0
2339141	2.186000e+00	1.524053e+02	-3.588616e+01	0	0
2341094	2.186000e+00	1.596059e+02	-1.893326e+01	0	0
2343047	2.186000e+00	1.658148e+02	-2.422726e+00	0	0
2345000	2.186000e+00	1.563237e+02	1.741016e+00	0	0
2346953	2.186000e+00	1.677150e+02	-3.677040e+00	0	0
2348906	2.186000e+00	1.749715e+02	3.540026e+01	0	0
2350859	2.186000e+00	1.778587e+02	5.122203e+01	0	0
2352813	2.186000e+00	2.059248e+02	8.021168e+00	0	0
2354766	2.186000e+00	2.176156e+02	-3.025866e+00	0	0
2356719	2.186000e+00	2.335030e+02	5.117274e+00	0	0
2358672	2.186000e+00	2.251097e+02	-3.998299e+01	0	0
2360625	2.186000e+00	2.168799e+02	-3.658563e+01	0	0
2362578	2.186000e+00	2.176859e+02	-3.572011e+00	0	0
2364531	2.186000e+00	2.307925e+02	4.718397e-01	0	0
2366484	2.186000e+00	2.563539e+02	1.097833e+00	0	0
2368438	2.186000e+00	2.743553e+02	-5.506533e+00	0	0
2370391	2.186000e+00	2.872110e+02	4.329720e+01	0	0
2372344	2.186000e+00	2.912967e+02	1.074163e+01	0	0
2374297	2.186000e+00	3.046829e+02	-4.441109e+00	0	0
2376250	2.186000e+00	3.309894e+02	5.583030e+00	0	0
2378203	2.186788e+00	3.328982e+02	-4.289558e+01	0	0
2380156	2.187000e+00	3.473281e+02	-1.344121e+01	0	0
2382109	2.187000e+00	3.635701e+02	1.731900e+00	0	0
2384063	2.187000e+00	3.429858e+02	-1.173294e+00	0	0
2386016	2.187000e+00	3.543974e+02	1.165079e+00	0	0
2387969	2.187000e+00	3.763724e+02	-5.017929e+00	0	0
2389922	2.187000e+00	3.834733e+02	3.902277e+01	0	0
2391875	2.187000e+00	3.964898e+02	1.608779e+01	0	0
2393828	2.187000e+00	4.211275e+02	-2.356428e+00	0	0
2395781	2.187000e+00	4.296594e+02	4.018341e+00	0	0
2397734	2.187000e+00	4.441259e+02	-3.712262e+01	0	0
2399688	2.187000e+00	4.321714e+02	-3.449357e+01	0	0
2401641	2.187000e+00	4.337571e+02	-4.004886e+00	0	0
2403594	2.187000e+00	4.511797e+02	-2.855771e-01	0	0
2405547	2.187000e+00	4.658138e+02	1.604626e-01	0	0
2407500	2.187000e+00	4.712610e+02	-5.417244e+00	0	0
2409453	2.187000e+00	4.768106e+02	3.827693e+01	0	0
2411406	2.187000e+00	5.080713e+02	2.168871e+01	0	0
2413359	2.187000e+00	5.091041e+02	-1.609087e+00	0	0
2415313	2.187000e+00	5.266600e+02	3.328321e+00	0	0
2417266	2.187000e+00	5.256759e+02	-4.092455e+01	0	0
2419219	2.187000e+00	5.068305e+02	-4.779668e+01	0	0
2421172	2.187000e+00	5.197013e+02	-3.041356e+01	0	0
2423125	2.187790e+00	4.995718e+02	-4.971590e+00	0	0
2425078	2.187210e+00	4.873945e+02	7.122407e-01	0	0
2427031	2.187790e+00	4.804024e+02	-3.999394e+00	0	0
2428984	2.188000e+00	4.725012e+02	2.928747e+01	0	0
2430938	2.188000e+00	4.546474e+02	6.250681e+01	0	0
2432891	2.188000e+00	4.361854e+02	1.032411e+01	0	0
2434844	2.188000e+00	4.204841e+02	-5.616010e+00	0	0
2436797	2.188000e+00	3.918797e+02	6.632653e+00	0	0
2438750	2.188000e+00	3.757990e+02	-5.855773e+01	0	0
2440703	2.188000e+00	3.264409e+02	-1.734469e+01	0	0
2442656	2.188000e+00	3.083171e+02	1.991377e+00	0	0
2444609	2.188000e+00	2.815206e+02	-2.137139e+00	0	0
2446563	2.188000e+00	2.640778e+02	5.821355e-01	0	0
2448516	2.188000e+00	2.368912e+02	-4.632313e+00	0	0
2450469	2.188000e+00	2.035286e+02	5.683287e+01	0	0
2452422	2.188000e+00	1.831622e+02	1.254161e+01	0	0
2454375	2.188000e+00	1.706348e+02	-6.261377e+00	0	0
2456328	2.188000e+00	1.612709e+02	6.517415e+00	0	0
2458281	2.188000e+00	1.341106e+02	-5.430698e+01	0	0
2460234	2.188000e+00	1.041881e+02	-2.008814e+01	0	0
2462188	2.188792e+00	8.006738e+01	1.129057e+00	0	0
2464141	2.189000e+00	6.683767e+01	-1.495814e+00	0	0
2466094	2.189000e+00	2.871029e+01	9.155125e-01	0	0
2468047	2.188208e+00	6.856915e+00	-5.888143e+00	0	0
2470000	2.188793e+00	7.146729e+00	4.332185e+01	0	0
2471953	2.189000e+00	8.404499e+00	1.605263e+01	0	0
2473906	2.189000e+00	-1.811687e+01	-3.025600e+00	0	0
2475859	2.189000e+00	-1.778349e+01	4.350677e+00	0	0
2477813	2.189000e+00	-3.062190e+01	-3.930184e+01	0	0
2479766	2.189000e+00	-4.446517e+01	-2.833848e+01	0	0
2481719	2.189000e+00	-5.037299e+01	-2.011953e+00	0	0
2483672	2.189000e+00	-5.970365e+01	-6.313084e-02	0	0
2485625	2.189000e+00	-5.991811e+01	1.007147e+00	0	0
2487578	2.189000e+00	-8.227515e+01	-4.555953e+00	0	0
2489531	2.189000e+00	-7.182629e+01	3.867138e+01	0	0
2491484	2.189000e+00	-7.265375e+01	1.652021e+01	0	0
2493438	2.189000e+00	-7.117604e+01	-1.498513e+00	0	0
2495391	2.189000e+00	-6.292817e+01	4.383392e+00	0	0
2497344	2.189000e+00	-5.048126e+01	-3.512465e+01	0	0
2499297	2.189000e+00	-6.229787e+01	-4.141177e+01	0	0
2501250	2.189000e+00	-7.080415e+01	-8.190357e+00	0	0
2503203	2.189794e+00	-8.102862e+01	1.144002e+00	0	0
2505156	2.190000e+00	-8.199334e+01	1.958641e+00	0	0
2507109	2.190000e+00	-9.895825e+01	-2.646548e+00	0	0
2509063	2.190000e+00	-8.667760e+01	3.820742e+01	0	0
2511016	2.190000e+00	-7.443742e+01	4.467423e+01	0	0
2512969	2.190000e+00	-6.613586e+01	7.283510e+00	0	0
2514922	2.190000e+00	-7.049532e+01	-1.120664e+00	0	0
2516875	2.190000e+00	-7.960724e+01	6.772821e+00	0	0
2518828	2.190000e+00	-7.851984e+01	-4.084659e+01	0	0
2520781	2.190000e+00	-9.160471e+01	-2.349945e+01	0	0
2522734	2.190000e+00	-9.951727e+01	8.015153e-01	0	0
2524688	2.190000e+00	-9.048574e+01	1.468292e+00	0	0
2526641	2.190000e+00	-9.454008e+01	2.475635e+00	0	0
2528594	2.190796e+00	-9.989974e+01	5.454033e-01	0	0
2530547	2.191000e+00	-9.623862e+01	5.065575e+01	0	0
2532500	2.191000e+00	-1.031244e+02	1.278404e+01	0	0
2534453	2.191000e+00	-9.502848e+01	-2.761440e+00	0	0
2536406	2.191000e+00	-9.973073e+01	8.034681e+00	0	0
2538359	2.191000e+00	-9.258649e+01	-4.679701e+01	0	0
2540313	2.191000e+00	-9.790781e+01	-1.439645e+01	0	0
2542266	2.191000e+00	-8.763499e+01	3.437376e+00	0	0
2544219	2.191000e+00	-1.060435e+02	6.664343e-01	0	0
2546172	2.191000e+00	-1.056222e+02	3.213760e+00	0	0
2548125	2.191000e+00	-1.071609e+02	-4.153664e+00	0	0
2550078	2.191000e+00	-1.103126e+02	4.880429e+01	0	0
2552031	2.191000e+00	-1.004546e+02	1.273383e+01	0	0
2553984	2.191000e+00	-8.800621e+01	-2.419771e+00	0	0
2555938	2.191797e+00	-1.064016e+02	6.765196e+00	0	0
2557891	2.192000e+00	-1.069296e+02	-4.007541e+01	0	0
2559844	2.192000e+00	-1.125155e+02	-3.853853e+01	0	0
2561797	2.192000e+00	-1.038661e+02	-2.523208e+00	0	0
2563750	2.192000e+00	-1.197671e+02	2.286511e+00	0	0
2565703	2.192000e+00	-1.403430e+02	2.535632e+00	0	0
2567656	2.192000e+00	-1.388015e+02	-2.951102e+00	0	0
2569609	2.192000e+00	-1.041276e+02	4.193742e+01	0	0
2571563	2.192000e+00	-1.149662e+02	2.065854e+01	0	0
2573516	2.192000e+00	-1.183895e+02	8.061594e-01	0	0
2575469	2.192000e+00	-8.690105e+01	4.639952e+00	0	0
2577422	2.192000e+00	-9.085065e+01	-2.623034e+01	0	0
2579375	2.192000e+00	-8.989276e+01	-4.605053e+01	0	0
2581328	2.192000e+00	-1.109938e+02	-5.975849e+00	0	0
2583281	2.192798e+00	-1.215251e+02	3.405315e+00	0	0
2585234	2.193000e+00	-1.242575e+02	2.670108e+00	0	0
2587188	2.193000e+00	-1.155840e+02	-1.876392e+00	0	0
2589141	2.193000e+00	-1.291116e+02	4.043916e+01	0	0
2591094	2.193000e+00	-1.316721e+02	4.065088e+01	0	0
2593047	2.193000e+00	-1.084292e+02	6.054597e+00	0	0
2595000	2.193000e+00	-8.524770e+01	2.408955e+00	0	0
2596953	2.193000e+00	-8.641723e+01	-1.244710e+01	0	0
2598906	2.193000e+00	-9.731840e+01	-4.487695e+01	0	0
2600859	2.193000e+00	-9.864314e+01	-3.774089e+01	0	0
2602813	2.193000e+00	-9.680873e+01	-1.975851e+00	0	0
2604766	2.193800e+00	-9.555131e+01	3.167945e+00	0	0
2606719	2.194000e+00	-1.034728e+02	3.834799e+00	0	0
2608672	2.194000e+00	-9.641579e+01	-3.660844e+00	0	0
2610625	2.194000e+00	-1.010664e+02	5.478322e+01	0	0
2612578	2.194000e+00	-1.086527e+02	1.463857e+01	0	0
2614531	2.194000e+00	-1.024281e+02	-2.103483e+00	0	0
2616484	2.194000e+00	-1.059841e+02	8.911848e+00	0	0
2618438	2.194000e+00	-8.343969e+01	-4.808576e+01	0	0
2620391	2.194000e+00	-1.036333e+02	-2.719579e+01	0	0
2622344	2.194000e+00	-1.042420e+02	1.495960e+00	0	0
2624297	2.194000e+00	-1.151755e+02	2.200198e+00	0	0
2626250	2.194801e+00	-1.002301e+02	3.782864e+00	0	0
2628203	2.195000e+00	-1.110270e+02	-3.208315e+00	0	0
2630156	2.195000e+00	-1.172472e+02	4.923276e+01	0	0
2632109	2.195000e+00	-1.019456e+02	1.306317e+01	0	0
2634063	2.195000e+00	-9.271377e+01	-1.466690e+00	0	0
2636016	2.195000e+00	-9.217575e+01	6.943603e+00	0	0
2637969	2.195000e+00	-1.020493e+02	-3.699296e+01	0	0
2639922	2.195000e+00	-9.925690e+01	-4.551001e+01	0	0
2641875	2.195000e+00	-1.059255e+02	-3.655393e+00	0	0
2643828	2.195000e+00	-1.082806e+02	3.387203e+00	0	0
2645781	2.195802e+00	-1.103959e+02	3.088303e+00	0	0
2647734	2.196000e+00	-1.237778e+02	-2.442259e+00	0	0
2649688	2.196000e+00	-1.328694e+02	4.281322e+01	0	0
2651641	2.196000e+00	-1.190130e+02	1.258020e+01	0	0
2653594	2.196000e+00	-1.043058e+02	-6.023582e-01	0	0
2655547	2.196000e+00	-1.124028e+02	5.656951e+00	0	0
2657500	2.196000e+00	-1.092431e+02	-2.786965e+01	0	0
2659453	2.196000e+00	-1.288856e+02	-4.489262e+01	0	0
2661406	2.196000e+00	-1.472407e+02	-1.236408e+01	0	0
2663359	2.196000e+00	-1.554093e+02	-1.139167e+00	0	0
2665313	2.196000e+00	-1.649661e+02	-1.788992e+00	0	0
2667266	2.196803e+00	-1.409372e+02	-5.510130e+00	0	0
2669219	2.197000e+00	-1.389149e+02	2.991992e+01	0	0
2671172	2.197000e+00	-1.291514e+02	4.716055e+01	0	0
2673125	2.197000e+00	-1.195042e+02	6.628005e+00	0	0
2675078	2.197000e+00	-1.062165e+02	5.213824e+00	0	0
2677031	2.197000e+00	-9.371750e+01	-2.756766e+01	0	0
2678984	2.197000e+00	-1.003396e+02	-4.360762e+01	0	0
2680938	2.197000e+00	-1.160022e+02	-4.367725e+01	0	0
2682891	2.197000e+00	-1.259864e+02	1.661488e+00	0	0
2684844	2.197804e+00	-1.411028e+02	1.165307e+01	0	0
2686797	2.198000e+00	-1.312698e+02	1.054074e+01	0	0
2688750	2.198000e+00	-1.253143e+02	2.955819e+00	0	0
2690703	2.198000e+00	-1.314934e+02	5.687066e+01	0	0
2692656	2.198000e+00	-1.521031e+02	1.389699e+01	0	0
2694609	2.198000e+00	-1.582300e+02	-2.433224e+00	0	0
2696563	2.198000e+00	-1.700777e+02	6.440147e+00	0	0
2698516	2.198000e+00	-2.096673e+02	-5.869634e+01	0	0
2700469	2.198000e+00	-1.913903e+02	-3.591822e+01	0	0
2702422	2.198000e+00	-1.372487e+02	-9.098118e+00	0	0
2704375	2.198805e+00	-1.083852e+02	-7.900604e+00	0	0
2706328	2.199000e+00	-8.489362e+01	-2.602579e+00	0	0
2708281	2.199000e+00	-7.721399e+01	-8.639130e+00	0	0
2710234	2.199000e+00	-4.762148e+01	4.471367e+01	0	0
2712188	2.199000e+00	-2.010317e+01	7.490819e+00	0	0
2714141	2.199000e+00	2.515724e+01	-3.030974e+00	0	0
2716094	2.199000e+00	5.855038e+01	9.589824e+00	0	0
2718047	2.199000e+00	8.786367e+01	-3.566615e+01	0	0
2720000	2.199000e+00	7.908326e+01	-2.718902e+01	0	0
2721953	2.199806e+00	-6.501318e-01	9.107906e-01	0	0
2723906	2.200000e+00	-3.696022e+01	1.899300e+00	0	0
2725859	2.200000e+00	-2.881824e+01	2.396635e+00	0	0
2727813	2.200000e+00	-2.133514e+01	-3.129406e+00	0	0
2729766	2.200000e+00	-1.953656e+01	4.165848e+01	0	0
2731719	2.200000e+00	1.038063e+01	1.920981e+01	0	0
2733672	2.200000e+00	2.919655e+01	1.048460e+00	0	0
2735625	2.200000e+00	3.260342e+01	6.550089e+00	0	0
2737578	2.200000e+00	4.184096e+01	-3.621827e+01	0	0
2739531	2.200807e+00	2.212838e+01	-3.195349e+01	0	0
2741484	2.201000e+00	2.199910e+01	-4.284426e+00	0	0
2743438	2.201000e+00	4.330131e+01	1.942568e+00	0	0
2745391	2.201000e+00	4.103635e+01	3.833358e+00	0	0
2747344	2.201000e+00	5.942228e+01	1.472964e+00	0	0
2749297	2.201000e+00	7.905557e+01	3.867663e+01	0	0
2751250	2.201000e+00	8.645730e+01	5.421129e+01	0	0
2753203	2.201000e+00	8.842228e+01	1.146422e+01	0	0
2755156	2.201000e+00	9.209901e+01	6.398509e+00	0	0
2757109	2.201000e+00	1.163904e+02	-2.445348e+01	0	0
2759063	2.201808e+00	9.049885e+01	-3.928909e+01	0	0
2761016	2.202000e+00	8.492333e+01	-3.890683e+01	0	0
2762969	2.202000e+00	7.687140e+01	1.399859e+00	0	0
2764922	2.202000e+00	6.483144e+01	8.522235e+00	0	0
2766875	2.202000e+00	7.011771e+01	7.331328e+00	0	0
2768828	2.202000e+00	6.056604e+01	-4.491463e-01	0	0
2770781	2.202000e+00	5.331322e+01	4.700176e+01	0	0
2772734	2.202808e+00	2.106577e+01	1.039030e+01	0	0
2774688	2.203000e+00	4.845988e+00	-3.554898e+00	0	0
2776641	2.203000e+00	-2.354990e+01	5.862140e+00	0	0
2778594	2.203000e+00	-5.066989e+01	-4.700687e+01	0	0
2780547	2.203000e+00	-7.131627e+01	-2.420604e+01	0	0
2782500	2.203000e+00	-7.225123e+01	-9.162006e+00	0	0
2784453	2.203000e+00	-7.657266e+01	-1.103487e+01	0	0
2786406	2.203000e+00	-8.849665e+01	-7.623860e+00	0	0
2788359	2.203809e+00	-1.023146e+02	-9.742659e+00	0	0
2790313	2.203191e+00	-1.359398e+02	3.179003e+01	0	0
2792266	2.203809e+00	-1.627440e+02	3.501968e+00	0	0
2794219	2.204000e+00	-1.262208e+02	-5.948509e+00	0	0
2796172	2.204000e+00	-1.344764e+02	5.460320e+00	0	0
2798125	2.204000e+00	-1.602946e+02	-3.088104e+01	0	0
2800078	2.204000e+00	-1.959881e+02	-3.709312e+00	0	0
2802031	2.204809e+00	-2.215840e+02	3.573308e+00	0	0
2803984	2.205000e+00	-2.139213e+02	-4.664891e-01	0	0
2805938	2.205000e+00	-1.982426e+02	1.268480e+00	0	0
2807891	2.205000e+00	-2.101787e+02	-3.818005e+00	0	0
2809844	2.205000e+00	-2.316846e+02	3.447328e+01	0	0
2811797	2.205000e+00	-2.409002e+02	1.458462e+01	0	0
2813750	2.205000e+00	-2.361674e+02	-1.470375e+00	0	0
2815703	2.205000e+00	-2.124765e+02	2.966392e+00	0	0
2817656	2.205000e+00	-2.108646e+02	-3.501070e+01	0	0
2819609	2.205810e+00	-2.272847e+02	-3.280189e+01	0	0
2821563	2.206000e+00	-2.242491e+02	-5.026791e+00	0	0
2823516	2.206000e+00	-2.089685e+02	2.861957e+00	0	0
2825469	2.206000e+00	-1.888709e+02	4.171907e+00	0	0
2827422	2.206000e+00	-1.673845e+02	-6.150121e-01	0	0
2829375	2.206000e+00	-2.055265e+02	4.063094e+01	0	0
2831328	2.206000e+00	-2.278309e+02	4.112771e+01	0	0
2833281	2.206000e+00	-2.360530e+02	5.869176e+00	0	0
2835234	2.206811e+00	-2.191303e+02	3.958637e+00	0	0
2837188	2.207000e+00	-2.084085e+02	-2.651032e+01	0	0
2839141	2.207000e+00	-2.301552e+02	-4.558975e+01	0	0
2841094	2.207000e+00	-2.310294e+02	-3.067164e+01	0	0
2843047	2.207000e+00	-2.224301e+02	2.612623e-01	0	0
2845000	2.207811e+00	-2.423011e+02	3.403852e+00	0	0
2846953	2.208000e+00	-2.337656e+02	-1.007329e-01	0	0
2848906	2.208000e+00	-2.300126e+02	6.894381e+00	0	0
2850859	2.208000e+00	-2.020060e+02	5.146909e+01	0	0
2852813	2.208000e+00	-1.890566e+02	9.406432e+00	0	0
2854766	2.208000e+00	-1.744576e+02	-4.371850e+00	0	0
2856719	2.208000e+00	-1.798708e+02	5.299965e+00	0	0
2858672	2.208000e+00	-1.966193e+02	-5.107954e+01	0	0
2860625	2.208000e+00	-2.371329e+02	-2.185746e+01	0	0
2862578	2.208812e+00	-3.156273e+02	-1.560555e+00	0	0
2864531	2.209000e+00	-3.637903e+02	-1.162144e+00	0	0
2866484	2.209000e+00	-3.623653e+02	1.113499e+00	0	0
2868438	2.209000e+00	-3.804681e+02	-5.257470e+00	0	0
2870391	2.209000e+00	-3.154447e+02	4.264452e+01	0	0
2872344	2.209000e+00	-1.769317e+02	8.753491e+00	0	0
2874297	2.209000e+00	-6.218833e+01	-3.941535e+00	0	0
2876250	2.209813e+00	7.909424e+01	4.542891e+00	0	0
2878203	2.210000e+00	1.998931e+02	-3.990281e+01	0	0
2880156	2.210000e+00	3.820439e+02	-9.220530e+00	0	0
2882109	2.210000e+00	6.221732e+02	1.396610e+00	0	0
2884063	2.210000e+00	8.522191e+02	-1.513042e+00	0	0
2886016	2.210000e+00	1.102456e+03	5.164345e-01	0	0
2887969	2.210814e+00	1.354408e+03	-4.984614e+00	0	0
2889922	2.211000e+00	1.607551e+03	3.652498e+01	0	0
2891875	2.211000e+00	1.777578e+03	7.848679e+00	0	0
2893828	2.211000e+00	1.722574e+03	-2.379792e+00	0	0
2895781	2.211000e+00	1.617681e+03	4.806874e+00	0	0
2897734	2.211000e+00	1.288929e+03	-3.290604e+01	0	0
2899688	2.211000e+00	1.015406e+03	-3.186821e+01	0	0
2901641	2.211814e+00	8.103422e+02	-1.512511e+00	0	0
2903594	2.212000e+00	5.810341e+02	2.443515e+00	0	0
2905547	2.212000e+00	4.124276e+02	2.454679e+00	0	0
2907500	2.212000e+00	1.592388e+02	-1.925051e+00	0	0
2909453	2.212000e+00	-5.182774e+01	3.619410e+01	0	0
2911406	2.212000e+00	-1.700250e+02	3.638749e+01	0	0
2913359	2.212000e+00	-2.686766e+02	3.362242e+00	0	0
2915313	2.212000e+00	-3.209235e+02	-7.740204e-01	0	0
2917266	2.212815e+00	-3.406685e+02	-1.033324e+01	0	0
2919219	2.213000e+00	-3.510696e+02	-4.133073e+01	0	0
2921172	2.213000e+00	-3.121346e+02	-3.076750e+01	0	0
2923125	2.213000e+00	-3.077008e+02	-3.052835e+00	0	0
2925078	2.213000e+00	-2.785396e+02	1.260673e+00	0	0
2927031	2.213000e+00	-2.692069e+02	-3.551193e+00	0	0
2928984	2.213815e+00	-2.273464e+02	2.885567e+01	0	0
2930938	2.214000e+00	-1.866191e+02	4.810811e+01	0	0
2932891	2.214000e+00	-1.689376e+02	3.830439e+00	0	0
2934844	2.214000e+00	-2.036817e+02	-7.778464e+00	0	0
2936797	2.214000e+00	-1.996091e+02	-5.451693e-01	0	0
2938750	2.214000e+00	-2.159791e+02	-4.848986e+01	0	0
2940703	2.214816e+00	-2.081998e+02	-1.702211e+01	0	0
2942656	2.215000e+00	-1.857041e+02	-5.691998e+00	0	0
2944609	2.215000e+00	-2.350117e+02	-4.974136e+00	0	0
2946563	2.215000e+00	-2.563764e+02	-1.127169e+00	0	0
2948516	2.215000e+00	-2.318869e+02	-4.707614e+00	0	0
2950469	2.215816e+00	-2.188166e+02	2.706216e+01	0	0
2952422	2.216000e+00	-2.168177e+02	4.731161e+00	0	0
2954375	2.216000e+00	-1.802274e+02	-1.617685e+00	0	0
2956328	2.216000e+00	-1.658569e+02	2.234772e+00	0	0
2958281	2.216000e+00	-1.551079e+02	-1.929286e+01	0	0
2960234	2.216000e+00	-1.788240e+02	-4.179889e+00	0	0
2962188	2.216000e+00	-1.896490e+02	9.243736e-01	0	0
2964141	2.216817e+00	-1.771190e+02	-2.133258e-01	0	0
2966094	2.217000e+00	-1.827276e+02	2.346912e-01	0	0
2968047	2.217000e+00	-2.143465e+02	-8.149670e-01	0	0
2970000	2.217000e+00	-1.828419e+02	1.013365e+01	0	0
2971953	2.217000e+00	-1.794286e+02	2.885090e+00	0	0
2973906	2.217000e+00	-1.973073e+02	3.332962e-01	0	0
2975859	2.217817e+00	-1.959992e+02	2.208538e+00	0	0
2977813	2.218000e+00	-2.072155e+02	-7.706449e+00	0	0
2979766	2.218000e+00	-2.226622e+02	-9.420793e-01	0	0
2981719	2.218000e+00	-2.067751e+02	9.102666e-01	0	0
2983672	2.218000e+00	-2.132355e+02	-1.607348e-01	0	0
2985625	2.218000e+00	-2.108225e+02	2.204679e-02	0	0
2987578	2.218000e+00	-2.233184e+02	-2.126659e+00	0	0
2989531	2.218818e+00	-2.169624e+02	1.078228e+01	0	0
2991484	2.219000e+00	-2.094483e+02	1.521982e+00	0	0
2993438	2.219000e+00	-2.150891e+02	-1.747364e+00	0	0
2995391	2.219000e+00	-1.814655e+02	1.687281e+00	0	0
2997344	2.219000e+00	-1.864875e+02	-1.777365e+01	0	0
2999297	2.219000e+00	-1.966271e+02	-1.197131e+01	0	0
3001250	2.219819e+00	-1.732807e+02	2.159580e-01	0	0
3003203	2.220000e+00	-1.605917e+02	1.328939e+00	0	0
3005156	2.220000e+00	-1.601333e+02	1.348208e+00	0	0
3007109	2.220000e+00	-1.823719e+02	-1.520170e+00	0	0
3009063	2.220000e+00	-1.906233e+02	1.875510e+01	0	0
3011016	2.220819e+00	-1.899431e+02	3.789270e+01	0	0
3012969	2.221000e+00	-1.899346e+02	3.968392e+00	0	0
3014922	2.221000e+00	-1.631545e+02	-5.820289e+00	0	0
3016875	2.221000e+00	-1.488037e+02	-2.108033e+00	0	0
3018828	2.221000e+00	-1.206686e+02	-4.543718e+01	0	0
3020781	2.221000e+00	-1.630461e+02	-1.546170e+01	0	0
3022734	2.221819e+00	-1.309679e+02	-4.139186e+00	0	0
3024688	2.222000e+00	-1.439465e+02	-4.064765e+00	0	0
3026641	2.222000e+00	-1.487199e+02	-1.775778e+00	0	0
3028594	2.222000e+00	-1.556600e+02	-6.384381e+00	0	0
3030547	2.222000e+00	-1.350079e+02	3.004361e+01	0	0
3032500	2.222820e+00	-1.222814e+02	7.689334e+00	0	0
3034453	2.223000e+00	-1.257303e+02	1.721821e+00	0	0
3036406	2.223000e+00	-1.055392e+02	8.872250e+00	0	0
3038359	2.223000e+00	-1.135801e+02	-2.408519e+01	0	0
3040313	2.223000e+00	-1.469515e+02	-3.883542e+00	0	0
3042266	2.223000e+00	-1.465904e+02	4.237742e-01	0	0
3044219	2.223821e+00	-1.281735e+02	-1.378734e+00	0	0
3046172	2.224000e+00	-1.093007e+02	7.618143e-01	0	0
3048125	2.224000e+00	-1.170551e+02	-1.778964e+00	0	0
3050078	2.224000e+00	-1.459597e+02	2.375910e+01	0	0
3052031	2.224000e+00	-8.050314e+01	6.372763e+00	0	0
3053984	2.224821e+00	-8.554515e+01	1.615943e+00	0	0
3055938	2.225000e+00	-8.979686e+01	1.800478e+00	0	0
3057891	2.225000e+00	-1.004235e+02	-1.044052e+00	0	0
3059844	2.225000e+00	-1.093158e+02	-2.201875e+01	0	0
3061797	2.225000e+00	-1.148867e+02	-5.216562e+00	0	0
3063750	2.225000e+00	-9.102112e+01	-1.210822e+00	0	0
3065703	2.225821e+00	-6.799771e+01	-2.148407e+00	0	0
3067656	2.226000e+00	-4.464721e+01	-4.626436e+00	0	0
3069609	2.226000e+00	-2.329170e+01	1.809295e+01	0	0
3071563	2.226000e+00	2.542486e-01	1.128457e+01	0	0
3073516	2.226000e+00	-2.670747e+00	2.024747e+00	0	0
3075469	2.226000e+00	2.859374e+01	5.044962e+00	0	0
3077422	2.226822e+00	2.879346e+01	8.988906e+00	0	0
3079375	2.227000e+00	-2.040827e+01	-1.580056e+01	0	0
3081328	2.227000e+00	-4.467966e+01	-1.378221e+01	0	0
3083281	2.227000e+00	-3.337184e+01	9.624262e+00	0	0
3085234	2.227000e+00	-2.058543e+01	1.564705e+01	0	0
3087188	2.227823e+00	1.608470e+01	1.861149e+01	0	0
3089141	2.228000e+00	3.082252e+01	1.633743e+01	0	0
3091094	2.228000e+00	7.637818e+00	4.642833e+01	0	0
3093047	2.228000e+00	2.331727e+01	2.224619e+01	0	0
3095000	2.228000e+00	5.541800e+01	1.205016e+01	0	0
3096953	2.228823e+00	7.063643e+01	1.760868e+01	0	0
3098906	2.229000e+00	5.458302e+01	-1.555335e+01	0	0
3100859	2.229000e+00	8.129391e+01	-1.734267e+01	0	0
3102813	2.229000e+00	8.833054e+01	-4.692354e+00	0	0
3104766	2.229000e+00	6.064380e+01	1.111085e+01	0	0
3106719	2.229000e+00	6.775269e+01	2.319531e+01	0	0
3108672	2.229824e+00	1.130453e+02	4.459691e+01	0	0
3110625	2.230000e+00	1.217902e+02	6.988913e+01	0	0
3112578	2.230000e+00	1.317961e+02	7.550971e+01	0	0
3114531	2.230000e+00	1.594951e+02	2.234745e+01	0	0
3116484	2.230000e+00	2.001900e+02	-4.327116e+01	0	0
3118438	2.230824e+00	2.043655e+02	-1.191837e+02	0	0
3120391	2.231000e+00	2.307938e+02	-1.617454e+02	0	0
3122344	2.231000e+00	2.250058e+02	-1.384384e+02	0	0
3124297	2.231000e+00	2.230260e+02	-6.373974e+01	0	0
3126250	2.231000e+00	2.244355e+02	8.138412e+00	0	0
3128203	2.231824e+00	2.266215e+02	7.143870e+01	0	0
3130156	2.232000e+00	2.482107e+02	8.547086e+01	0	0
3132109	2.232000e+00	2.157116e+02	5.481945e+01	0	0
3134063	2.232000e+00	2.157608e+02	2.105734e+01	0	0
3136016	2.232000e+00	2.478588e+02	-1.820108e+01	0	0
3137969	2.232000e+00	2.668019e+02	-4.619942e+01	0	0
3139922	2.232825e+00	2.842903e+02	-6.353145e+01	0	0
3141875	2.233000e+00	2.699058e+02	-5.888093e+01	0	0
3143828	2.233000e+00	2.682655e+02	-2.765575e+01	0	0
3145781	2.233000e+00	2.437860e+02	-1.483345e+00	0	0
3147734	2.233825e+00	2.407296e+02	4.811059e+00	0	0
3149688	2.234000e+00	2.589003e+02	4.552990e+01	0	0
3151641	2.234000e+00	2.483651e+02	5.857282e+01	0	0
3153594	2.234000e+00	2.917674e+02	6.397962e+01	0	0
3155547	2.234000e+00	2.740058e+02	6.228386e+01	0	0
3157500	2.234000e+00	2.506425e+02	4.893378e+01	0	0
3159453	2.234826e+00	2.635741e+02	2.791339e+01	0	0
3161406	2.235000e+00	2.631629e+02	1.424482e+00	0	0
3163359	2.235000e+00	2.111111e+02	-8.126082e+00	0	0
3165313	2.235000e+00	1.796149e+02	-2.719155e+01	0	0
3167266	2.235000e+00	1.345083e+02	-4.528058e+01	0	0
3169219	2.235826e+00	1.474268e+02	-5.605364e+01	0	0
3171172	2.236000e+00	1.574609e+02	-5.882619e+01	0	0
3173125	2.236000e+00	1.197797e+02	-5.133926e+01	0	0
3175078	2.236000e+00	9.608711e+01	-3.531077e+01	0	0
3177031	2.236000e+00	9.435750e+01	-1.068910e+01	0	0
3178984	2.236000e+00	2.945073e+00	1.753862e+00	0	0
3180938	2.236827e+00	-6.760999e+01	2.523851e+01	0	0
3182891	2.237000e+00	-1.031479e+02	4.620714e+01	0	0
3184844	2.237000e+00	-1.143053e+02	5.643150e+01	0	0
3186797	2.237000e+00	-1.218532e+02	5.749174e+01	0	0
3188750	2.237000e+00	-1.412805e+02	5.035415e+01	0	0
3190703	2.237827e+00	-1.312908e+02	3.665637e+01	0	0
3192656	2.238000e+00	-1.471681e+02	1.608184e+01	0	0
3194609	2.238000e+00	-1.410669e+02	1.024500e+01	0	0
3196563	2.238000e+00	-1.646541e+02	-1.686002e+00	0	0
3198516	2.238000e+00	-1.576726e+02	-2.492560e+01	0	0
3200469	2.238828e+00	-2.096173e+02	-2.033094e+01	0	0
3202422	2.239000e+00	-1.857637e+02	-1.969264e+01	0	0
3204375	2.239000e+00	-2.024079e+02	-2.034662e+01	0	0
3206328	2.239000e+00	-1.861763e+02	-1.681350e+01	0	0
3208281	2.239000e+00	-1.916352e+02	-1.165079e+01	0	0
3210234	2.239828e+00	-1.860710e+02	6.649402e+00	0	0
3212188	2.240000e+00	-2.033564e+02	9.035432e+00	0	0
3214141	2.240000e+00	-1.942340e+02	7.637487e+00	0	0
3216094	2.240000e+00	-1.897418e+02	5.954475e+00	0	0
3218047	2.240829e+00	-2.250829e+02	6.714530e+00	0	0
3220000	2.241000e+00	-2.140729e+02	5.794746e+00	0	0
3221953	2.241000e+00	-2.378136e+02	1.350938e+01	0	0
3223906	2.241000e+00	-2.524517e+02	1.553706e+01	0	0
3225859	2.241000e+00	-2.630241e+02	1.502344e+01	0	0
3227813	2.241829e+00	-2.315088e+02	1.404751e+01	0	0
3229766	2.242000e+00	-2.442911e+02	1.092610e+01	0	0
3231719	2.242000e+00	-2.465791e+02	1.572700e+01	0	0
3233672	2.242000e+00	-2.518079e+02	6.560972e+00	0	0
3235625	2.242000e+00	-2.927023e+02	4.307581e+00	0	0
3237578	2.242829e+00	-3.218677e+02	4.390202e+00	0	0
3239531	2.243000e+00	-3.378720e+02	2.772882e+00	0	0
3241484	2.243000e+00	-3.214873e+02	-9.976413e+00	0	0
3243438	2.243000e+00	-3.454594e+02	1.303624e+00	0	0
3245391	2.243830e+00	-3.544224e+02	3.810247e+00	0	0
3247344	2.244000e+00	-3.360072e+02	3.565360e+00	0	0
3249297	2.244000e+00	-3.393079e+02	1.459798e+00	0	0
3251250	2.244000e+00	-3.331349e+02	2.097618e+01	0	0
3253203	2.244000e+00	-3.231836e+02	6.513056e+00	0	0
3255156	2.244000e+00	-2.518741e+02	1.192396e+00	0	0
3257109	2.244000e+00	-2.835537e+02	4.508747e+00	0	0
3259063	2.244831e+00	-2.464517e+02	-1.533485e+01	0	0
3261016	2.245000e+00	-2.573636e+02	-5.908787e+00	0	0
3262969	2.245000e+00	-2.740010e+02	2.596623e+00	0	0
3264922	2.245000e+00	-2.649242e+02	2.477270e+00	0	0
3266875	2.245831e+00	-2.763357e+02	3.003944e+00	0	0
3268828	2.246000e+00	-2.747669e+02	6.711956e-01	0	0
3270781	2.246000e+00	-2.881306e+02	1.950207e+01	0	0
3272734	2.246000e+00	-3.137651e+02	5.596749e+00	0	0
3274688	2.246000e+00	-3.108577e+02	1.060092e+00	0	0
3276641	2.246831e+00	-2.914299e+02	3.811398e+00	0	0
3278594	2.247000e+00	-2.583558e+02	-1.181509e+01	0	0
3280547	2.247000e+00	-2.714092e+02	-4.936423e-01	0	0
3282500	2.247000e+00	-2.950287e+02	2.530263e+00	0	0
3284453	2.247000e+00	-3.002724e+02	1.650664e+00	0	0
3286406	2.247831e+00	-3.012335e+02	1.954675e+00	0	0
3288359	2.248000e+00	-3.052453e+02	2.556746e-01	0	0
3290313	2.248000e+00	-3.401641e+02	7.730491e+00	0	0
3292266	2.248000e+00	-3.258306e+02	3.236057e+00	0	0
3294219	2.248832e+00	-2.969492e+02	1.978679e+00	0	0
3296172	2.249000e+00	-2.957179e+02	2.482586e+00	0	0
3298125	2.249000e+00	-2.971779e+02	2.517302e+00	0	0
3300078	2.249000e+00	-2.564374e+02	2.803184e+00	0	0
3302031	2.249000e+00	-2.517426e+02	2.245221e+00	0	0
3303984	2.249832e+00	-2.601626e+02	3.003307e+00	0	0
3305938	2.250000e+00	-3.116608e+02	3.473269e+00	0	0
3307891	2.250000e+00	-2.919962e+02	5.095003e+00	0	0
3309844	2.250000e+00	-2.996404e+02	6.688890e+00	0	0
3311797	2.250000e+00	-2.840436e+02	8.343835e+00	0	0
3313750	2.250000e+00	-2.630146e+02	9.229140e+00	0	0
3315703	2.250833e+00	-2.451738e+02	8.867107e+00	0	0
3317656	2.251000e+00	-2.150960e+02	7.231569e+00	0	0
3319609	2.251000e+00	-2.026942e+02	7.749400e+00	0	0
3321563	2.251000e+00	-2.518579e+02	8.346148e+00	0	0
3323516	2.251833e+00	-2.736356e+02	8.451352e+00	0	0
3325469	2.252000e+00	-2.735595e+02	8.380026e+00	0	0
3327422	2.252000e+00	-3.110258e+02	5.026870e+00	0	0
3329375	2.252000e+00	-3.238742e+02	1.610650e+00	0	0
3331328	2.252000e+00	-3.051973e+02	-7.661179e-01	0	0
3333281	2.252834e+00	-2.904548e+02	-1.068503e+00	0	0
3335234	2.253000e+00	-2.486090e+02	1.807568e+00	0	0
3337188	2.253000e+00	-2.429236e+02	5.347969e+00	0	0
3339141	2.253000e+00	-2.628586e+02	5.966503e+00	0	0
3341094	2.253000e+00	-2.596821e+02	6.118467e+00	0	0
3343047	2.253834e+00	-2.794128e+02	1.433806e+01	0	0
3345000	2.254000e+00	-2.693410e+02	2.175309e+01	0	0
3346953	2.254000e+00	-2.817323e+02	2.790589e+01	0	0
3348906	2.254000e+00	-2.850503e+02	3.043051e+01	0	0
3350859	2.254834e+00	-2.707971e+02	3.566785e+01	0	0
3352813	2.255000e+00	-2.264929e+02	2.434542e+01	0	0
3354766	2.255000e+00	-2.471059e+02	2.049296e+01	0	0
3356719	2.255000e+00	-2.678067e+02	1.106609e+01	0	0
3358672	2.255000e+00	-2.886360e+02	-5.212957e+00	0	0
3360625	2.255835e+00	-2.929661e+02	-1.513927e+01	0	0
3362578	2.256000e+00	-2.693459e+02	-1.220994e+01	0	0
3364531	2.256000e+00	-2.928132e+02	4.480776e-02	0	0
3366484	2.256000e+00	-2.588215e+02	1.998982e+01	0	0
3368438	2.256000e+00	-2.815087e+02	2.933190e+01	0	0
3370391	2.256836e+00	-2.433093e+02	4.566355e+01	0	0
3372344	2.257000e+00	-2.141396e+02	6.739326e+01	0	0
3374297	2.257000e+00	-2.189287e+02	4.455110e+01	0	0
3376250	2.257000e+00	-1.743482e+02	-3.695978e+01	0	0
3378203	2.257836e+00	-1.961766e+02	-1.156676e+02	0	0
3380156	2.258000e+00	-1.763293e+02	-1.652586e+02	0	0
3382109	2.258000e+00	-2.122833e+02	-1.443524e+02	0	0
3384063	2.258000e+00	-1.966553e+02	-6.698654e+01	0	0
3386016	2.258000e+00	-2.040232e+02	6.232998e+00	0	0
3387969	2.258836e+00	-2.035943e+02	6.946782e+01	0	0
3389922	2.259000e+00	-1.835540e+02	7.901585e+01	0	0
3391875	2.259000e+00	-1.952294e+02	4.946213e+01	0	0
3393828	2.259000e+00	-1.968902e+02	2.999700e+01	0	0
3395781	2.259000e+00	-1.379807e+02	2.431341e+00	0	0
3397734	2.259836e+00	-1.326745e+02	-1.106313e+01	0	0
3399688	2.260000e+00	-1.545293e+02	-9.475754e+00	0	0
3401641	2.260000e+00	-1.391219e+02	-7.015153e+00	0	0
3403594	2.260000e+00	-1.415978e+02	-4.962884e+00	0	0
3405547	2.260837e+00	-1.509556e+02	-3.041682e+00	0	0
3407500	2.261000e+00	-1.597931e+02	-1.046055e+00	0	0
3409453	2.261000e+00	-1.259809e+02	1.271156e-02	0	0
3411406	2.261000e+00	-1.261701e+02	8.468435e+00	0	0
3413359	2.261000e+00	-1.345872e+02	1.314970e+01	0	0
3415313	2.261838e+00	-7.952266e+01	9.587811e+00	0	0
3417266	2.262000e+00	-2.043791e+01	4.671689e+00	0	0
3419219	2.262000e+00	-2.502468e+01	5.514816e-01	0	0
3421172	2.262000e+00	-3.167915e+01	6.677984e+00	0	0
3423125	2.262838e+00	-4.685266e+01	9.607734e+00	0	0
3425078	2.263000e+00	-7.031937e+01	1.061897e+01	0	0
3427031	2.263000e+00	-1.039430e+02	1.149703e+01	0	0
3428984	2.263000e+00	-6.483121e+01	1.013938e+01	0	0
3430938	2.263000e+00	-6.076946e+01	1.762330e+01	0	0
3432891	2.263000e+00	-6.288839e+01	1.004944e+01	0	0
3434844	2.263838e+00	-1.742657e+01	5.726340e+00	0	0
3436797	2.264000e+00	-3.120240e+01	2.987452e+00	0	0
3438750	2.264000e+00	-2.910577e+01	-5.750199e+00	0	0
3440703	2.264000e+00	-3.334874e+01	-1.983547e+00	0	0
3442656	2.264839e+00	-1.271622e+02	-8.193439e+00	0	0
3444609	2.265000e+00	-1.509806e+02	-1.343810e+01	0	0
3446563	2.265000e+00	-1.852340e+02	-1.535611e+01	0	0
3448516	2.265000e+00	-2.307915e+02	-1.660619e+01	0	0
3450469	2.265839e+00	-2.565630e+02	-9.387870e+00	0	0
3452422	2.266000e+00	-2.442628e+02	-9.812406e+00	0	0
3454375	2.266000e+00	-2.500161e+02	-5.082462e+00	0	0
3456328	2.266000e+00	-2.713075e+02	3.844163e+00	0	0
3458281	2.266000e+00	-2.590248e+02	3.481176e+00	0	0
3460234	2.266839e+00	-2.825607e+02	7.874196e+00	0	0
3462188	2.267000e+00	-2.949507e+02	2.967380e+00	0	0
3464141	2.267000e+00	-3.216627e+02	2.009954e+01	0	0
3466094	2.267000e+00	-3.003863e+02	2.474913e+01	0	0
3468047	2.267840e+00	-3.236916e+02	1.826061e+01	0	0
3470000	2.268000e+00	-3.272399e+02	2.787341e+01	0	0
3471953	2.268000e+00	-3.656721e+02	4.639010e+01	0	0
3473906	2.268000e+00	-3.668538e+02	-3.138953e+00	0	0
3475859	2.268000e+00	-3.535523e+02	-2.432242e+01	0	0
3477813	2.268841e+00	-3.804877e+02	-2.717600e+01	0	0
3479766	2.269000e+00	-3.413782e+02	-6.952897e+01	0	0
3481719	2.269000e+00	-3.298413e+02	-9.723959e+01	0	0
3483672	2.269000e+00	-3.258043e+02	-1.348523e+01	0	0
3485625	2.269841e+00	-3.203530e+02	6.005571e+00	0	0
3487578	2.270000e+00	-2.922547e+02	8.478463e+00	0	0
3489531	2.270000e+00	-2.828980e+02	7.990382e+01	0	0
3491484	2.270000e+00	-2.849958e+02	1.251298e+02	0	0
3493438	2.270000e+00	-2.767882e+02	5.564922e+01	0	0
3495391	2.270841e+00	-2.598504e+02	4.836408e+01	0	0
3497344	2.271000e+00	-3.044579e+02	-1.109673e+01	0	0
3499297	2.271000e+00	-3.530541e+02	-2.496503e+01	0	0
3501250	2.271000e+00	-3.544838e+02	-1.470553e+00	0	0
3503203	2.271841e+00	-3.748900e+02	2.590474e+01	0	0
3505156	2.272000e+00	-4.200038e+02	4.671173e+01	0	0
3507109	2.272000e+00	-4.233144e+02	5.392222e+01	0	0
3509063	2.272000e+00	-4.160015e+02	7.444488e+01	0	0
3511016	2.272000e+00	-4.300265e+02	9.488812e+01	0	0
3512969	2.272842e+00	-3.853254e+02	9.357128e+01	0	0
3514922	2.273000e+00	-3.290055e+02	3.697235e+01	0	0
3516875	2.273000e+00	-3.109469e+02	-3.281819e+01	0	0
3518828	2.273000e+00	-3.433528e+02	-1.069024e+02	0	0
3520781	2.273000e+00	-3.557309e+02	-1.683646e+02	0	0
3522734	2.273842e+00	-3.247151e+02	-1.702934e+02	0	0
3524688	2.274000e+00	-3.873766e+02	-9.579967e+01	0	0
3526641	2.274000e+00	-3.983243e+02	-2.212431e+01	0	0
3528594	2.274000e+00	-4.105259e+02	4.614373e+01	0	0
3530547	2.274843e+00	-4.186734e+02	6.713414e+01	0	0
3532500	2.275000e+00	-4.176816e+02	2.752593e+01	0	0
3534453	2.275000e+00	-3.908457e+02	-4.232317e+01	0	0
3536406	2.275000e+00	-3.649889e+02	-9.924477e+01	0	0
3538359	2.275000e+00	-3.422724e+02	-1.474431e+02	0	0
3540313	2.275843e+00	-2.450882e+02	-1.593312e+02	0	0
3542266	2.276000e+00	-1.580329e+02	-1.358555e+02	0	0
3544219	2.276000e+00	-3.042414e+01	-8.229728e+01	0	0
3546172	2.276000e+00	8.515235e+01	-3.318043e+01	0	0
3548125	2.276844e+00	2.722347e+02	1.616891e+01	0	0
3550078	2.277000e+00	4.687620e+02	5.849098e+01	0	0
3552031	2.277000e+00	7.354557e+02	3.546658e+01	0	0
3553984	2.277000e+00	9.621711e+02	9.147929e+00	0	0
3555938	2.277000e+00	1.166995e+03	-2.792074e+00	0	0
3557891	2.277844e+00	1.387187e+03	-1.582533e+01	0	0
3559844	2.278000e+00	1.493857e+03	-3.486387e+01	0	0
3561797	2.278000e+00	1.402926e+03	-3.492860e+01	0	0
3563750	2.278000e+00	1.257855e+03	-1.953869e+01	0	0
3565703	2.278844e+00	9.752597e+02	-1.744275e+01	0	0
3567656	2.279000e+00	7.296550e+02	-1.576925e+01	0	0
3569609	2.279000e+00	6.112431e+02	-3.725492e+00	0	0
3571563	2.279000e+00	5.078513e+02	1.695857e+01	0	0
3573516	2.279000e+00	3.631395e+02	1.093755e+01	0	0
3575469	2.279845e+00	1.619114e+02	1.233263e+01	0	0
3577422	2.280000e+00	3.736646e+01	1.490278e+01	0	0
3579375	2.280000e+00	-1.123318e+02	3.452780e+00	0	0
3581328	2.280000e+00	-2.118461e+02	6.893657e+00	0	0
3583281	2.280000e+00	-3.059236e+02	2.661053e+01	0	0
3585234	2.280845e+00	-3.303025e+02	2.522225e+01	0	0
3587188	2.281000e+00	-3.515576e+02	1.941015e+01	0	0
3589141	2.281000e+00	-3.350761e+02	5.178088e+00	0	0
3591094	2.281000e+00	-3.166390e+02	4.540165e+01	0	0
3593047	2.281846e+00	-3.093089e+02	9.525515e+00	0	0
3595000	2.282000e+00	-3.172005e+02	-7.772348e+00	0	0
3596953	2.282000e+00	-2.989936e+02	-5.780975e+00	0	0
3598906	2.282000e+00	-2.821138e+02	-5.638784e+01	0	0
3600859	2.282000e+00	-2.746646e+02	-4.898044e+01	0	0
3602813	2.282846e+00	-2.881612e+02	-3.766566e+00	0	0
3604766	2.283000e+00	-2.921866e+02	3.750449e+00	0	0
3606719	2.283000e+00	-2.849486e+02	5.366020e+00	0	0
3608672	2.283000e+00	-3.272118e+02	-8.774541e-01	0	0
3610625	2.283846e+00	-3.465012e+02	5.698105e+01	0	0
3612578	2.284000e+00	-3.091684e+02	1.722297e+01	0	0
3614531	2.284000e+00	-3.306601e+02	5.322073e+00	0	0
3616484	2.284000e+00	-3.032585e+02	5.917123e+00	0	0
3618438	2.284000e+00	-2.910653e+02	-4.173695e+01	0	0
3620391	2.284847e+00	-3.153644e+02	-5.171428e+00	0	0
3622344	2.285000e+00	-2.802216e+02	3.200879e+00	0	0
3624297	2.285000e+00	-3.286780e+02	6.575615e-01	0	0
3626250	2.285000e+00	-3.551289e+02	9.199411e-01	0	0
3628203	2.285847e+00	-3.815148e+02	-7.672051e-01	0	0
3630156	2.286000e+00	-3.800790e+02	2.113496e+01	0	0
3632109	2.286000e+00	-3.756090e+02	4.186030e+00	0	0
3634063	2.286000e+00	-3.469485e+02	-2.142132e-01	0	0
3636016	2.286000e+00	-3.133670e+02	7.154127e-01	0	0
3637969	2.286848e+00	-2.697362e+02	-3.803069e+00	0	0
3639922	2.287000e+00	-3.022773e+02	-9.794770e+00	0	0
3641875	2.287000e+00	-3.003577e+02	-3.535393e+00	0	0
3643828	2.287848e+00	-3.024781e+02	-2.856911e+00	0	0
3645781	2.288000e+00	-2.915179e+02	-3.567885e+00	0	0
3647734	2.288000e+00	-2.791084e+02	-4.444137e+00	0	0
3649688	2.288000e+00	-2.680977e+02	1.146508e+00	0	0
3651641	2.288000e+00	-2.284742e+02	-2.425540e+00	0	0
3653594	2.288848e+00	-2.096324e+02	-3.130369e+00	0	0
3655547	2.289000e+00	-1.919177e+02	-2.133696e+00	0	0
3657500	2.289000e+00	-2.108811e+02	-8.490040e+00	0	0
3659453	2.289000e+00	-2.377957e+02	-3.906665e+00	0	0
3661406	2.289000e+00	-2.445858e+02	-3.003363e+00	0	0
3663359	2.289849e+00	-2.458665e+02	-3.481691e+00	0	0
3665313	2.290000e+00	-3.109478e+02	-3.770619e+00	0	0
3667266	2.290000e+00	-3.143694e+02	-3.574884e+00	0	0
3669219	2.290000e+00	-3.481339e+02	-4.933013e+00	0	0
3671172	2.290849e+00	-3.174492e+02	1.177629e+01	0	0
3673125	2.291000e+00	-2.550033e+02	-3.060555e-01	0	0
3675078	2.291000e+00	-2.184929e+02	-3.793902e+00	0	0
3677031	2.291000e+00	-1.894348e+02	-5.135160e-01	0	0
3678984	2.291849e+00	-1.865631e+02	-2.647869e+01	0	0
3680938	2.292000e+00	-1.898733e+02	-8.755562e+00	0	0
3682891	2.292000e+00	-2.040053e+02	-5.674528e+00	0	0
3684844	2.292000e+00	-1.859779e+02	-7.443577e+00	0	0
3686797	2.292000e+00	-2.078260e+02	-6.287538e+00	0	0
3688750	2.292850e+00	-2.247138e+02	-1.036865e+01	0	0
3690703	2.293000e+00	-2.010254e+02	2.383184e+01	0	0
3692656	2.293000e+00	-1.986954e+02	-3.136029e+00	0	0
3694609	2.293000e+00	-1.841445e+02	-1.132661e+01	0	0
3696563	2.293851e+00	-1.507158e+02	-9.353833e+00	0	0
3698516	2.294000e+00	-1.493964e+02	-4.873738e+01	0	0
3700469	2.294000e+00	-1.732053e+02	-2.554886e+01	0	0
3702422	2.294000e+00	-1.709256e+02	-2.159987e+01	0	0
3704375	2.294851e+00	-1.432955e+02	-2.403371e+01	0	0
3706328	2.295000e+00	-1.351938e+02	-2.397116e+01	0	0
3708281	2.295000e+00	-1.575135e+02	-2.517722e+01	0	0
3710234	2.295000e+00	-1.515094e+02	-1.093662e+01	0	0
3712188	2.295000e+00	-1.493526e+02	8.084730e+00	0	0
3714141	2.295851e+00	-1.685022e+02	-1.246655e+01	0	0
3716094	2.296000e+00	-1.794566e+02	-1.170355e+01	0	0
3718047	2.296000e+00	-1.715542e+02	-8.192247e+00	0	0
3720000	2.296000e+00	-1.688199e+02	-2.322102e+01	0	0
3721953	2.296000e+00	-1.666730e+02	-2.713575e+01	0	0
3723906	2.296851e+00	-1.636663e+02	5.798682e+00	0	0
3725859	2.297000e+00	-1.671336e+02	1.727231e+01	0	0
3727813	2.297000e+00	-1.830542e+02	1.883541e+01	0	0
3729766	2.297000e+00	-1.495007e+02	4.810965e+01	0	0
3731719	2.297000e+00	-1.339232e+02	4.747708e+01	0	0
3733672	2.297852e+00	-1.531565e+02	2.580333e+01	0	0
3735625	2.298000e+00	-1.354748e+02	2.275180e+01	0	0
3737578	2.298000e+00	-1.162530e+02	5.898027e+00	0	0
3739531	2.298852e+00	-1.056774e+02	-1.452872e+01	0	0
3741484	2.299000e+00	-8.605754e+01	-8.065625e+00	0	0
3743438	2.299000e+00	-1.067668e+02	-6.414360e-01	0	0
3745391	2.299000e+00	-1.046479e+02	-4.817018e+00	0	0
3747344	2.299000e+00	-6.828814e+01	-9.967429e+00	0	0
3749297	2.299853e+00	-7.203982e+01	-1.383731e+01	0	0
3751250	2.300000e+00	-4.347581e+01	5.192032e+00	0	0
3753203	2.300000e+00	-1.487735e+01	-3.724145e+01	0	0
3755156	2.300000e+00	3.867118e-01	-4.798505e+01	0	0
3757109	2.300000e+00	-3.934071e+00	-3.927091e+01	0	0
3759063	2.300853e+00	-6.831201e+00	-7.557286e+01	0	0
3761016	2.301000e+00	7.626508e+00	-5.106430e+01	0	0
3762969	2.301000e+00	1.598033e+01	-5.930244e+00	0	0
3764922	2.301000e+00	-5.850847e+00	-7.125443e-01	0	0
3766875	2.301853e+00	1.119283e+01	1.238397e+01	0	0
3768828	2.302000e+00	8.069015e+00	2.051741e+01	0	0
3770781	2.302000e+00	3.046940e+01	7.875084e+01	0	0
3772734	2.302000e+00	1.656105e+01	4.476267e+01	0	0
3774688	2.302000e+00	4.685071e+01	3.403751e+01	0	0
3776641	2.302854e+00	5.586314e+01	3.522627e+01	0	0
3778594	2.303000e+00	5.061972e+01	-1.672122e+01	0	0
3780547	2.303000e+00	4.722317e+01	-5.530550e+00	0	0
3782500	2.303000e+00	3.295731e+01	1.006548e+01	0	0
3784453	2.303000e+00	8.225969e+01	6.993976e-02	0	0
3786406	2.303854e+00	6.684855e+01	-9.006042e+00	0	0
3788359	2.304000e+00	6.079747e+01	-1.692607e+01	0	0
3790313	2.304000e+00	1.172123e+02	1.035885e+00	0	0
3792266	2.304000e+00	1.563985e+02	-1.228414e+01	0	0
3794219	2.304854e+00	1.776730e+02	-1.301268e+01	0	0
3796172	2.305000e+00	2.146040e+02	-8.487775e+00	0	0
3798125	2.305000e+00	2.196570e+02	-1.577885e+01	0	0
3800078	2.305000e+00	1.783141e+02	-6.604803e+00	0	0
3802031	2.305854e+00	1.470919e+02	-2.235809e+00	0	0
3803984	2.306000e+00	1.325375e+02	4.810483e-01	0	0
3805938	2.306000e+00	9.490294e+01	-2.620042e-01	0	0
3807891	2.306000e+00	1.011258e+02	-7.547121e-01	0	0
3809844	2.306000e+00	1.244188e+02	-7.423472e-01	0	0
3811797	2.306000e+00	1.571053e+02	1.966666e+00	0	0
3813750	2.306855e+00	1.932103e+02	3.681970e+00	0	0
3815703	2.307000e+00	1.967039e+02	6.297221e+00	0	0
3817656	2.307000e+00	2.262756e+02	4.678768e+00	0	0
3819609	2.307000e+00	2.670144e+02	3.566728e+00	0	0
3821563	2.307856e+00	2.592611e+02	1.589834e+00	0	0
3823516	2.308000e+00	2.766415e+02	6.965569e-01	0	0
3825469	2.308000e+00	2.378925e+02	3.255203e-02	0	0
3827422	2.308000e+00	2.231283e+02	-5.795621e-01	0	0
3829375	2.308000e+00	2.001251e+02	-9.385746e-01	0	0
3831328	2.308856e+00	1.894538e+02	3.976031e+00	0	0
3833281	2.309000e+00	1.716676e+02	7.763986e-01	0	0
3835234	2.309000e+00	1.173421e+02	-1.800036e-01	0	0
3837188	2.309856e+00	8.962380e+01	1.264069e+00	0	0
3839141	2.310000e+00	3.249066e+01	-9.518573e+00	0	0
3841094	2.310000e+00	2.422317e+01	-1.020905e+00	0	0
3843047	2.310000e+00	-1.521063e+01	8.819593e-01	0	0
3845000	2.310000e+00	-5.638147e+01	1.918462e-01	0	0
3846953	2.310856e+00	-8.256028e+01	9.152381e-01	0	0
3848906	2.311000e+00	-1.122894e+02	-1.827891e+00	0	0
3850859	2.311000e+00	-9.564224e+01	2.675280e+01	0	0
3852813	2.311000e+00	-1.012119e+02	7.159725e+00	0	0
3854766	2.311000e+00	-1.113433e+02	3.386287e+00	0	0
3856719	2.311000e+00	-1.434292e+02	7.298947e+00	0	0
3858672	2.311857e+00	-1.391877e+02	-3.026465e+01	0	0
3860625	2.312000e+00	-1.154095e+02	-7.185092e+00	0	0
3862578	2.312000e+00	-1.433729e+02	-3.941394e+00	0	0
3864531	2.312857e+00	-1.751925e+02	-8.371292e+00	0	0
3866484	2.313000e+00	-1.781375e+02	-1.022424e+01	0	0
3868438	2.313000e+00	-2.079107e+02	-1.404546e+01	0	0
3870391	2.313000e+00	-2.439643e+02	2.120338e+01	0	0
3872344	2.313000e+00	-2.417930e+02	-2.246885e+00	0	0
3874297	2.313858e+00	-2.708727e+02	-1.029350e+01	0	0
3876250	2.314000e+00	-2.837944e+02	2.313263e+00	0	0
3878203	2.314000e+00	-2.662418e+02	-3.505977e+01	0	0
3880156	2.314000e+00	-2.801036e+02	-1.912225e+01	0	0
3882109	2.314858e+00	-2.832123e+02	-5.523716e+00	0	0
3884063	2.315000e+00	-2.612511e+02	1.125414e+01	0	0
3886016	2.315000e+00	-2.822295e+02	3.478931e+01	0	0
3887969	2.315000e+00	-2.782331e+02	5.334487e+01	0	0
3889922	2.315000e+00	-2.792072e+02	8.263308e+01	0	0
3891875	2.315000e+00	-3.090204e+02	8.709589e+01	0	0
3893828	2.315858e+00	-3.196495e+02	2.963911e+01	0	0
3895781	2.316000e+00	-3.293323e+02	-6.384595e+01	0	0
3897734	2.316000e+00	-3.074521e+02	-1.703737e+02	0	0
3899688	2.316000e+00	-3.002877e+02	-2.133500e+02	0	0
3901641	2.316859e+00	-3.469701e+02	-1.712479e+02	0	0
3903594	2.317000e+00	-3.385299e+02	-9.323354e+01	0	0
3905547	2.317000e+00	-3.460103e+02	-2.222676e+01	0	0
3907500	2.317000e+00	-3.400050e+02	5.141747e+01	0	0
3909453	2.317859e+00	-3.204159e+02	8.433920e+01	0	0
3911406	2.318000e+00	-2.793250e+02	7.338426e+01	0	0
3913359	2.318000e+00	-2.713298e+02	4.630660e+01	0	0
3915313	2.318000e+00	-2.938434e+02	2.409699e+01	0	0
3917266	2.318000e+00	-2.628869e+02	6.066108e+00	0	0
3919219	2.318859e+00	-3.017393e+02	-1.366758e+01	0	0
3921172	2.319000e+00	-3.058193e+02	9.767294e+00	0	0
3923125	2.319000e+00	-2.978977e+02	6.499498e+00	0	0
3925078	2.319000e+00	-3.052295e+02	2.582148e+00	0	0
3927031	2.319859e+00	-3.085969e+02	4.507681e+00	0	0
3928984	2.320000e+00	-3.289100e+02	-1.063819e+00	0	0
3930938	2.320000e+00	-3.213787e+02	3.780259e+01	0	0
3932891	2.320000e+00	-3.171197e+02	7.731994e+00	0	0
3934844	2.320000e+00	-3.663057e+02	-3.371119e-01	0	0
3936797	2.320860e+00	-3.569045e+02	2.261559e+00	0	0
3938750	2.321000e+00	-3.603972e+02	-4.267950e+01	0	0
3940703	2.321000e+00	-3.816976e+02	-2.109549e+01	0	0
3942656	2.321000e+00	-3.849176e+02	-6.220978e+00	0	0
3944609	2.321860e+00	-3.661938e+02	-7.371431e+00	0	0
3946563	2.322000e+00	-3.468956e+02	-6.594485e+00	0	0
3948516	2.322000e+00	-3.149246e+02	-1.068104e+01	0	0
3950469	2.322000e+00	-2.764747e+02	3.041415e+01	0	0
3952422	2.322000e+00	-3.199572e+02	2.945035e-01	0	0
3954375	2.322861e+00	-3.149664e+02	-5.579356e+00	0	0
3956328	2.323000e+00	-2.791127e+02	1.352718e+00	0	0
3958281	2.323000e+00	-2.795012e+02	-3.311995e+01	0	0
3960234	2.323000e+00	-3.124885e+02	-1.640643e+01	0	0
3962188	2.323861e+00	-2.899936e+02	-3.000314e+00	0	0
3964141	2.324000e+00	-2.756878e+02	-3.860641e+00	0	0
3966094	2.324000e+00	-3.016978e+02	-3.687701e+00	0	0
3968047	2.324000e+00	-3.427480e+02	-6.128650e+00	0	0
3970000	2.324000e+00	-3.458963e+02	2.114224e+01	0	0
3971953	2.324861e+00	-3.431243e+02	1.166776e+01	0	0
3973906	2.325000e+00	-3.540919e+02	3.637396e-02	0	0
3975859	2.325000e+00	-3.156335e+02	2.868966e+00	0	0
3977813	2.325000e+00	-2.858247e+02	-2.303218e+01	0	0
3979766	2.325862e+00	-3.132010e+02	-1.815729e+01	0	0
3981719	2.326000e+00	-3.027972e+02	-4.364562e+00	0	0
3983672	2.326000e+00	-3.082921e+02	-3.393674e+00	0	0
3985625	2.326000e+00	-2.901297e+02	-4.071308e+00	0	0
3987578	2.326000e+00	-2.720553e+02	-3.306506e+00	0	0
3989531	2.326862e+00	-2.611152e+02	-8.194921e+00	0	0
3991484	2.327000e+00	-3.113792e+02	1.769889e+01	0	0
3993438	2.327000e+00	-3.408685e+02	-8.666133e+00	0	0
3995391	2.327000e+00	-3.366845e+02	-1.359639e+01	0	0
3997344	2.327862e+00	-3.547649e+02	-6.170603e+00	0	0
3999297	2.328000e+00	-3.254510e+02	-3.453952e+01	0	0
4001250	2.328000e+00	-3.158977e+02	-3.872195e+01	0	0
4003203	2.328000e+00	-3.258730e+02	-7.197364e+00	0	0
4005156	2.328863e+00	-3.586203e+02	5.218563e-01	0	0
4007109	2.328137e+00	-3.703308e+02	5.605331e+00	0	0
4009063	2.328863e+00	-3.847670e+02	4.448274e+00	0	0
4011016	2.329000e+00	-3.648427e+02	4.901467e+01	0	0
4012969	2.329000e+00	-3.327638e+02	1.232352e+01	0	0
4014922	2.329863e+00	-3.156435e+02	-1.262560e+00	0	0
4016875	2.330000e+00	-2.768665e+02	8.336458e-01	0	0
4018828	2.330000e+00	-2.068794e+02	-4.122941e+01	0	0
4020781	2.330000e+00	-2.089136e+02	-1.154826e+01	0	0
4022734	2.330863e+00	-1.867921e+02	-1.038583e+01	0	0
4024688	2.331000e+00	-2.362033e+02	-1.604007e+01	0	0
4026641	2.331000e+00	-2.895081e+02	-1.563404e+01	0	0
4028594	2.331000e+00	-3.108706e+02	-1.676328e+01	0	0
4030547	2.331000e+00	-3.108676e+02	1.904677e+01	0	0
4032500	2.331864e+00	-2.703476e+02	2.310874e+00	0	0
4034453	2.332000e+00	-2.435318e+02	-1.641050e+00	0	0
4036406	2.332000e+00	-2.171237e+02	6.908704e-01	0	0
4038359	2.332000e+00	-1.479586e+02	-4.761553e+00	0	0
4040313	2.332000e+00	-9.163804e+01	-1.515076e+01	0	0
4042266	2.332864e+00	-7.903366e+01	1.091291e+01	0	0
4044219	2.333000e+00	-6.492420e+01	1.437363e+01	0	0
4046172	2.333000e+00	-4.893748e+01	1.193393e+01	0	0
4048125	2.333000e+00	-7.868213e+01	5.220360e+00	0	0
4050078	2.333864e+00	-8.795564e+01	2.864172e+01	0	0
4052031	2.334000e+00	-1.044414e+02	1.026507e+01	0	0
4053984	2.334000e+00	-1.170407e+02	-5.042933e-01	0	0
4055938	2.334000e+00	-6.970062e+01	1.261840e+00	0	0
4057891	2.334000e+00	-3.217502e+01	-3.636153e+01	0	0
4059844	2.334865e+00	-4.796059e+00	-1.263789e+01	0	0
4061797	2.335000e+00	-1.382956e+01	-7.122959e+00	0	0
4063750	2.335000e+00	-2.175170e+01	-9.685368e+00	0	0
4065703	2.335000e+00	-5.472911e+01	-9.390481e+00	0	0
4067656	2.335865e+00	-6.479220e+01	-1.308586e+01	0	0
4069609	2.336000e+00	-7.681705e+01	2.283464e+01	0	0
4071563	2.336000e+00	-1.050164e+02	2.478670e+01	0	0
4073516	2.336866e+00	-9.983747e+01	-4.147981e+00	0	0
4075469	2.337000e+00	-7.833721e+01	-4.723975e+00	0	0
4077422	2.337000e+00	-6.240377e+01	3.914545e+00	0	0
4079375	2.337000e+00	-6.458107e+01	-3.575679e+01	0	0
4081328	2.337000e+00	-1.279243e+02	-3.060552e+01	0	0
4083281	2.337866e+00	-1.524234e+02	-6.144062e-02	0	0
4085234	2.338000e+00	-1.812802e+02	6.922097e+00	0	0
4087188	2.338000e+00	-2.032202e+02	1.157503e+01	0	0
4089141	2.338000e+00	-2.260648e+02	1.015659e+01	0	0
4091094	2.338866e+00	-2.522524e+02	5.526336e+01	0	0
4093047	2.339000e+00	-2.672454e+02	1.943547e+01	0	0
4095000	2.339000e+00	-2.383180e+02	7.233344e+00	0	0
4096953	2.339000e+00	-2.550518e+02	5.727752e+00	0	0
4098906	2.339866e+00	-2.857797e+02	-3.588464e+01	0	0
4100859	2.340000e+00	-2.572603e+02	-3.997437e+00	0	0
4102813	2.340000e+00	-2.778513e+02	-3.797465e+00	0	0
4104766	2.340000e+00	-3.014359e+02	-1.083281e+01	0	0
4106719	2.340867e+00	-3.210251e+02	-1.229314e+01	0	0
4108672	2.341000e+00	-3.233544e+02	-1.515217e+01	0	0
4110625	2.341000e+00	-3.248308e+02	1.699252e+01	0	0
4112578	2.341000e+00	-3.313902e+02	6.736019e-01	0	0
4114531	2.341000e+00	-3.560117e+02	-9.363873e-01	0	0
4116484	2.341867e+00	-3.594715e+02	2.933396e+00	0	0
4118438	2.342000e+00	-3.517759e+02	-2.091753e+01	0	0
4120391	2.342000e+00	-3.451950e+02	-9.740117e+00	0	0
4122344	2.342000e+00	-3.550042e+02	1.064964e+01	0	0
4124297	2.342868e+00	-3.396447e+02	1.368020e+01	0	0
4126250	2.343000e+00	-3.477574e+02	1.454318e+01	0	0
4128203	2.343000e+00	-3.637579e+02	9.823679e+00	0	0
4130156	2.343000e+00	-3.701549e+02	3.935426e+01	0	0
4132109	2.343868e+00	-3.582698e+02	8.236585e+00	0	0
4134063	2.344000e+00	-3.532504e+02	3.092239e-01	0	0
4136016	2.344000e+00	-3.455339e+02	4.907955e+00	0	0
4137969	2.344000e+00	-3.611770e+02	-2.997914e+01	0	0
4139922	2.344868e+00	-3.984225e+02	-1.235924e+01	0	0
4141875	2.345000e+00	-3.642102e+02	-2.013267e-01	0	0
4143828	2.345000e+00	-3.995397e+02	-2.276589e+00	0	0
4145781	2.345000e+00	-3.799110e+02	-3.208894e+00	0	0
4147734	2.345868e+00	-3.769465e+02	-7.097496e+00	0	0
4149688	2.346000e+00	-3.628801e+02	2.642843e+01	0	0
4151641	2.346000e+00	-3.653843e+02	2.957391e+01	0	0
4153594	2.346000e+00	-3.367337e+02	8.801528e-01	0	0
4155547	2.346869e+00	-3.148203e+02	1.807092e+00	0	0
4157500	2.347000e+00	-3.214477e+02	-5.811577e+00	0	0
4159453	2.347000e+00	-3.310862e+02	-3.305701e+01	0	0
4161406	2.347000e+00	-3.449307e+02	-2.413916e+01	0	0
4163359	2.347869e+00	-3.526650e+02	2.238683e+00	0	0
4165313	2.348000e+00	-3.515563e+02	6.805402e+00	0	0
4167266	2.348000e+00	-3.624237e+02	9.017220e+00	0	0
4169219	2.348000e+00	-3.284095e+02	4.949038e+00	0	0
4171172	2.348000e+00	-3.617698e+02	4.840210e+01	0	0
4173125	2.348869e+00	-4.380115e+02	1.077838e+01	0	0
4175078	2.349000e+00	-4.245968e+02	-3.165531e-02	0	0
4177031	2.349000e+00	-4.282249e+02	5.970543e+00	0	0
4178984	2.349000e+00	-3.981337e+02	-3.900276e+01	0	0
4180938	2.349870e+00	-3.363506e+02	-3.175301e+00	0	0
4182891	2.350000e+00	-2.516324e+02	3.809102e+00	0	0
4184844	2.350000e+00	-1.951899e+02	-4.411824e-01	0	0
4186797	2.350000e+00	-6.456413e+01	-7.357167e-01	0	0
4188750	2.350870e+00	6.476434e+01	-4.897111e+00	0	0
4190703	2.351000e+00	2.910467e+02	3.506092e+01	0	0
4192656	2.351000e+00	5.572224e+02	2.137540e+01	0	0
4194609	2.351000e+00	8.280560e+02	-1.888689e-02	0	0
4196563	2.351871e+00	1.060418e+03	2.197060e+00	0	0
4198516	2.352000e+00	1.286706e+03	-3.876770e+01	0	0
4200469	2.352000e+00	1.500804e+03	-1.175842e+01	0	0
4202422	2.352000e+00	1.615619e+03	-1.619492e+00	0	0
4204375	2.352000e+00	1.578472e+03	-1.526093e+00	0	0
4206328	2.352871e+00	1.463751e+03	1.312004e+00	0	0
4208281	2.353000e+00	1.181310e+03	-1.761131e+00	0	0
4210234	2.353000e+00	9.563979e+02	3.951370e+01	0	0
4212188	2.353871e+00	7.666417e+02	1.693341e+01	0	0
4214141	2.354000e+00	5.677764e+02	-8.183851e-01	0	0
4216094	2.354000e+00	3.731169e+02	3.802801e+00	0	0
4218047	2.354000e+00	7.613548e+01	-3.385841e+01	0	0
4220000	2.354000e+00	-1.243176e+02	-3.014663e+01	0	0
4221953	2.354871e+00	-2.169095e+02	-1.977735e+00	0	0
4223906	2.355000e+00	-3.153890e+02	-2.427653e+00	0	0
4225859	2.355000e+00	-4.007291e+02	-4.028490e+00	0	0
4227813	2.355872e+00	-4.171540e+02	-6.438933e+00	0	0
4229766	2.356000e+00	-4.205014e+02	3.376845e+01	0	0
4231719	2.356000e+00	-4.220830e+02	2.620396e+01	0	0
4233672	2.356000e+00	-4.152577e+02	8.392372e+00	0	0
4235625	2.356000e+00	-3.493483e+02	1.205167e+01	0	0
4237578	2.356872e+00	-3.255484e+02	-2.982060e+01	0	0
4239531	2.357000e+00	-2.793520e+02	-2.736724e+01	0	0
4241484	2.357000e+00	-2.960993e+02	-2.160286e+01	0	0
4243438	2.357000e+00	-2.798301e+02	1.678311e+01	0	0
4245391	2.357872e+00	-2.942131e+02	1.946632e+01	0	0
4247344	2.358000e+00	-3.024530e+02	1.605952e+01	0	0
4249297	2.358000e+00	-2.818481e+02	9.705224e+00	0	0
4251250	2.358000e+00	-2.861543e+02	6.352045e+01	0	0
4253203	2.358873e+00	-2.581779e+02	1.108388e+01	0	0
4255156	2.359000e+00	-2.401692e+02	-2.082750e+00	0	0
4257109	2.359000e+00	-2.383926e+02	-2.069871e+00	0	0
4259063	2.359873e+00	-2.870002e+02	-7.411239e+01	0	0
4261016	2.360000e+00	-3.064314e+02	-4.482657e+01	0	0
4262969	2.360000e+00	-3.272747e+02	-1.794208e+01	0	0
4264922	2.360000e+00	-3.723949e+02	-1.453730e+01	0	0
4266875	2.360873e+00	-3.719169e+02	-1.248439e+01	0	0
4268828	2.361000e+00	-3.634660e+02	2.489881e+01	0	0
4270781	2.361000e+00	-3.390742e+02	5.554643e+01	0	0
4272734	2.361000e+00	-3.458181e+02	3.268207e+00	0	0
4274688	2.361000e+00	-3.326261e+02	-3.277951e-01	0	0
4276641	2.361874e+00	-3.203818e+02	1.232348e+01	0	0
4278594	2.362000e+00	-3.135801e+02	-3.938264e+01	0	0
4280547	2.362000e+00	-3.119638e+02	-8.514722e-01	0	0
4282500	2.362000e+00	-2.879527e+02	8.255748e+00	0	0
4284453	2.362874e+00	-2.690118e+02	1.172934e+01	0	0
4286406	2.363000e+00	-2.517984e+02	1.288518e+01	0	0
4288359	2.363000e+00	-2.165876e+02	5.279352e+00	0	0
4290313	2.363000e+00	-1.973669e+02	5.741714e+01	0	0
4292266	2.363874e+00	-1.856739e+02	1.158402e+01	0	0
4294219	2.364000e+00	-1.993731e+02	8.245027e-01	0	0
4296172	2.364000e+00	-1.970926e+02	7.616378e+00	0	0
4298125	2.364000e+00	-2.082781e+02	-4.685959e+01	0	0
4300078	2.364874e+00	-2.094692e+02	-2.608764e+01	0	0
4302031	2.365000e+00	-2.213143e+02	-8.738688e+00	0	0
4303984	2.365000e+00	-2.196693e+02	4.558052e+00	0	0
4305938	2.365000e+00	-2.339112e+02	7.784457e+00	0	0
4307891	2.365875e+00	-2.294831e+02	2.347567e+00	0	0
4309844	2.366000e+00	-2.194352e+02	6.236532e+01	0	0
4311797	2.366000e+00	-2.065321e+02	5.017389e+01	0	0
4313750	2.366000e+00	-2.171115e+02	6.882822e+00	0	0
4315703	2.366875e+00	-2.183159e+02	9.620197e+00	0	0
4317656	2.367000e+00	-2.139434e+02	-5.596609e+01	0	0
4319609	2.367000e+00	-2.284613e+02	-5.043137e+01	0	0
4321563	2.367000e+00	-2.404122e+02	-3.637161e+01	0	0
4323516	2.367876e+00	-2.521594e+02	-1.244920e-01	0	0
4325469	2.368000e+00	-2.533081e+02	4.625861e+00	0	0
4327422	2.368000e+00	-2.624410e+02	2.429766e+00	0	0
4329375	2.368000e+00	-2.508469e+02	3.796935e+01	0	0
4331328	2.368876e+00	-2.413068e+02	8.090532e+01	0	0
4333281	2.369000e+00	-2.105438e+02	1.141595e+01	0	0
4335234	2.369000e+00	-2.068773e+02	-9.582772e-02	0	0
4337188	2.369000e+00	-2.113803e+02	9.330572e+00	0	0
4339141	2.369000e+00	-2.113173e+02	-6.503345e+01	0	0
4341094	2.369876e+00	-2.056099e+02	-1.718388e+01	0	0
4343047	2.370000e+00	-2.057458e+02	-2.886036e+00	0	0
4345000	2.370000e+00	-1.840363e+02	-5.595971e+00	0	0
4346953	2.370876e+00	-1.569130e+02	-2.966454e+00	0	0
4348906	2.371000e+00	-1.432943e+02	2.111437e+00	0	0
4350859	2.371000e+00	-1.171423e+02	5.834159e+01	0	0
4352813	2.371000e+00	-1.274187e+02	8.371735e+00	0	0
4354766	2.371000e+00	-1.209185e+02	1.543661e+00	0	0
4356719	2.371877e+00	-1.306181e+02	1.325195e+01	0	0
4358672	2.372000e+00	-1.600128e+02	-3.037176e+01	0	0
4360625	2.372000e+00	-1.405152e+02	-1.736515e+01	0	0
4362578	2.372877e+00	-1.199902e+02	-1.334574e+00	0	0
4364531	2.373000e+00	-1.356461e+02	1.848541e+01	0	0
4366484	2.373000e+00	-1.432948e+02	2.311878e+01	0	0
4368438	2.373000e+00	-1.375374e+02	2.072680e+01	0	0
4370391	2.373000e+00	-1.239954e+02	5.621451e+01	0	0
4372344	2.373877e+00	-1.010765e+02	2.712110e+01	0	0
4374297	2.374000e+00	-5.868552e+01	1.632089e+01	0	0
4376250	2.374000e+00	-3.519775e+01	1.032410e+01	0	0
4378203	2.374000e+00	-2.217773e+01	-1.881298e+01	0	0
4380156	2.374878e+00	-2.770946e+01	-1.549665e+00	0	0
4382109	2.375000e+00	-5.677574e+01	-7.949903e+00	0	0
4384063	2.375000e+00	-6.887944e+01	-1.793031e+01	0	0
4386016	2.375000e+00	-7.059712e+01	-2.371426e+01	0	0
4387969	2.375878e+00	-6.252862e+01	-2.778565e+01	0	0
4389922	2.376000e+00	-3.335407e+01	-1.550344e+01	0	0
4391875	2.376000e+00	-3.818802e+01	-1.829163e+01	0	0
4393828	2.376000e+00	-2.306132e+00	-9.819891e+00	0	0
4395781	2.376878e+00	2.337525e+01	2.462693e+00	0	0
4397734	2.377000e+00	1.183471e+01	3.809018e+00	0	0
4399688	2.377000e+00	-6.985863e-01	4.201618e+00	0	0
4401641	2.377879e+00	-2.112929e+01	1.034348e+01	0	0
4403594	2.378000e+00	-4.870832e+01	3.533843e+01	0	0
4405547	2.378000e+00	-4.519752e+01	3.817775e+01	0	0
4407500	2.378000e+00	-1.613419e+01	3.371850e+01	0	0
4409453	2.378000e+00	3.552150e+01	2.059074e+01	0	0
4411406	2.378879e+00	9.954253e+01	4.396313e+01	0	0
4413359	2.379000e+00	1.439745e+02	1.037302e+01	0	0
4415313	2.379000e+00	1.801220e+02	-7.554372e+00	0	0
4417266	2.379000e+00	1.803284e+02	-1.150635e+01	0	0
4419219	2.379879e+00	1.730640e+02	-6.412635e+01	0	0
4421172	2.380000e+00	1.931737e+02	-2.410814e+01	0	0
