time	gsr	ecg	emg_trapezius	emg_corrugator	emg_zygomaticus
313	1.983000e+00	3.833473e+02	-5.936162e-01	0	0
2266	1.983000e+00	3.541767e+02	1.496118e-01	0	0
4219	1.983000e+00	3.125219e+02	-8.661400e-01	0	0
6172	1.983000e+00	2.768097e+02	2.520306e+00	0	0
8125	1.983000e+00	2.602734e+02	1.596830e+01	0	0
10078	1.983000e+00	2.406246e+02	-2.048241e+00	0	0
12031	1.983000e+00	2.243581e+02	7.327284e-01	0	0
13984	1.983000e+00	2.011273e+02	-2.875160e+00	0	0
15938	1.983000e+00	1.777746e+02	-1.504485e+01	0	0
17891	1.983000e+00	1.616469e+02	1.347637e+00	0	0
19844	1.983000e+00	1.311213e+02	-5.743360e-01	0	0
21797	1.983000e+00	1.094429e+02	6.841333e-02	0	0
23750	1.983000e+00	8.054945e+01	-5.824772e-01	0	0
25703	1.983000e+00	5.985074e+01	1.416966e+00	0	0
27656	1.983000e+00	5.514432e+01	9.171292e+00	0	0
29609	1.983000e+00	3.476385e+01	-1.128245e+00	0	0
31563	1.983000e+00	2.675923e+01	2.697111e-01	0	0
33516	1.983000e+00	1.122216e+01	-8.660377e-01	0	0
35469	1.983000e+00	1.174058e+00	-6.508387e+00	0	0
37422	1.983000e+00	-5.213393e+00	-5.481429e+00	0	0
39375	1.983000e+00	-1.948634e+01	2.812372e-01	0	0
41328	1.983000e+00	-3.338341e+01	-2.081261e-01	0	0
43281	1.983000e+00	-3.449791e+01	-3.541300e-01	0	0
45234	1.983000e+00	-4.232425e+01	7.413581e-01	0	0
47188	1.983000e+00	-3.240991e+01	5.207295e+00	0	0
49141	1.983000e+00	-3.930630e+01	-7.467727e-01	0	0
51094	1.983000e+00	-3.344450e+01	1.873926e-01	0	0
53047	1.983000e+00	-2.950255e+01	-9.449796e-01	0	0
55000	1.983000e+00	-1.740021e+01	-6.781452e+00	0	0
56953	1.982838e+00	-2.138692e+01	-4.490316e+00	0	0
58906	1.982162e+00	-3.027963e+01	1.058281e+00	0	0
60859	1.983000e+00	-1.665490e+01	7.083194e-01	0	0
62813	1.983000e+00	-3.481556e+01	1.158470e+00	0	0
64766	1.983000e+00	-4.780984e+01	6.596876e-01	0	0
66719	1.982837e+00	-4.166170e+01	2.961498e+00	0	0
68672	1.982000e+00	-3.846571e+01	1.157086e+01	0	0
70625	1.982000e+00	-3.649226e+01	-1.892989e-02	0	0
72578	1.982000e+00	-2.619101e+01	1.870791e+00	0	0
74531	1.982000e+00	-3.188709e+01	-1.849809e+00	0	0
76484	1.982000e+00	-3.755688e+01	-1.338830e+01	0	0
78438	1.982000e+00	-4.811804e+01	1.216733e+00	0	0
80391	1.982164e+00	-5.970887e+01	-5.759769e-01	0	0
82344	1.982836e+00	-6.712778e+01	1.374540e-01	0	0
84297	1.982000e+00	-6.455880e+01	-9.257290e-01	0	0
86250	1.982000e+00	-7.056193e+01	2.690100e+00	0	0
88203	1.982000e+00	-5.227160e+01	1.632838e+01	0	0
90156	1.982000e+00	-3.869218e+01	-2.039772e+00	0	0
92109	1.982000e+00	-3.870258e+01	1.007831e+00	0	0
94063	1.982000e+00	-3.315584e+01	-3.040704e+00	0	0
96016	1.982000e+00	-4.596867e+01	-1.622717e+01	0	0
97969	1.982000e+00	-6.174984e+01	3.049789e-01	0	0
99922	1.982000e+00	-4.795001e+01	-2.019864e+00	0	0
101875	1.982000e+00	-7.306275e+01	-1.372750e+00	0	0
103828	1.982000e+00	-7.136183e+01	-1.947962e+00	0	0
105781	1.982000e+00	-7.450065e+01	3.100484e-01	0	0
107734	1.982000e+00	-7.071519e+01	8.235134e+00	0	0
109688	1.982000e+00	-6.271743e+01	-1.889664e+00	0	0
111641	1.982000e+00	-5.468988e+01	4.152826e-04	0	0
113594	1.982000e+00	-4.545578e+01	-1.346310e+00	0	0
115547	1.982000e+00	-4.905535e+01	-7.099613e+00	0	0
117500	1.982000e+00	-5.220120e+01	-1.702810e+00	0	0
119453	1.982000e+00	-5.660112e+01	-1.347807e-01	0	0
121406	1.982000e+00	-6.481277e+01	-1.108501e-01	0	0
123359	1.982000e+00	-7.363880e+01	-4.180678e-01	0	0
125313	1.982000e+00	-5.833238e+01	8.161626e-01	0	0
127266	1.982000e+00	-5.906361e+01	5.404321e+00	0	0
129219	1.982000e+00	-4.176122e+01	-8.137738e-01	0	0
131172	1.982000e+00	-3.766687e+01	2.386472e-01	0	0
133125	1.982000e+00	-3.537002e+01	-1.176171e+00	0	0
135078	1.982000e+00	-4.445148e+01	-5.803608e+00	0	0
137031	1.982000e+00	-4.895890e+01	-1.251477e-01	0	0
138984	1.982000e+00	-4.230238e+01	-2.625629e-01	0	0
140938	1.982000e+00	-5.926464e+01	-1.651469e-01	0	0
142891	1.982000e+00	-6.095448e+01	-9.502281e-02	0	0
144844	1.982000e+00	-5.627329e+01	-4.742627e-01	0	0
146797	1.982000e+00	-5.165864e+01	1.440969e+00	0	0
148750	1.982000e+00	-4.276612e+01	7.527985e+00	0	0
150703	1.982000e+00	-3.671941e+01	-3.654910e-01	0	0
152656	1.982000e+00	-1.836779e+01	1.986325e+00	0	0
154609	1.982000e+00	-2.087952e+01	-5.984532e-01	0	0
156563	1.982000e+00	-2.839533e+01	-8.954003e+00	0	0
158516	1.982000e+00	-3.850262e+01	1.915543e+00	0	0
160469	1.982000e+00	-2.925564e+01	-2.878595e-02	0	0
162422	1.982000e+00	-3.542756e+01	2.313825e-01	0	0
164375	1.982000e+00	-3.465163e+01	2.502289e-01	0	0
166328	1.982000e+00	-3.351728e+01	3.799494e+00	0	0
168281	1.982000e+00	-4.327338e+01	1.602580e+01	0	0
170234	1.982000e+00	-4.301923e+01	-2.072684e+00	0	0
172188	1.982000e+00	-4.332763e+01	1.058073e+00	0	0
174141	1.982000e+00	-2.998019e+01	-3.297979e+00	0	0
176094	1.982000e+00	-3.914568e+01	-1.654529e+01	0	0
178047	1.982000e+00	-3.623667e+01	1.552379e+00	0	0
180000	1.982000e+00	-4.318590e+01	-1.093322e+00	0	0
181953	1.982000e+00	-4.630305e+01	-1.160624e+00	0	0
183906	1.982000e+00	-4.006420e+01	-2.139583e+00	0	0
185859	1.982000e+00	-4.144043e+01	5.827433e-01	0	0
187813	1.982000e+00	-3.725513e+01	9.722395e+00	0	0
189766	1.982000e+00	-4.426182e+01	-3.275672e+00	0	0
191719	1.982000e+00	-3.184762e+01	-1.130712e+00	0	0
193672	1.982000e+00	-2.458307e+01	-3.531449e+00	0	0
195625	1.982000e+00	-2.619407e+01	-1.066091e+01	0	0
197578	1.982000e+00	-2.041322e+01	-4.923224e-02	0	0
199531	1.982000e+00	-3.045606e+01	-8.097808e-01	0	0
201484	1.982000e+00	-3.329846e+01	2.319690e-02	0	0
203438	1.982000e+00	-3.895764e+01	-6.159281e-01	0	0
205391	1.982000e+00	-3.292709e+01	1.397521e+00	0	0
207344	1.982000e+00	-2.899753e+01	8.305350e+00	0	0
209297	1.982000e+00	-3.039940e+01	-1.152969e+00	0	0
211250	1.982000e+00	-1.693973e+01	2.970652e-01	0	0
213203	1.982000e+00	-2.156091e+01	-1.174709e+00	0	0
215156	1.982000e+00	-2.597638e+01	-8.947186e+00	0	0
217109	1.982000e+00	-3.244151e+01	-7.934701e+00	0	0
219063	1.982000e+00	-2.792264e+01	4.763996e-01	0	0
221016	1.982000e+00	-3.486149e+01	-1.863262e-01	0	0
222969	1.982000e+00	-3.957420e+01	1.025138e-01	0	0
224922	1.982000e+00	-4.966316e+01	2.851293e+00	0	0
226875	1.982000e+00	-3.819019e+01	1.100646e+01	0	0
228828	1.982000e+00	-3.189367e+01	8.031496e-01	0	0
230781	1.982000e+00	-3.276110e+01	1.879352e+00	0	0
232734	1.982000e+00	-2.800231e+01	2.014676e+00	0	0
234688	1.982000e+00	-3.707599e+01	-1.584565e+00	0	0
236641	1.982000e+00	-4.088421e+01	-1.285543e+01	0	0
238594	1.982000e+00	-4.983573e+01	1.211533e+00	0	0
240547	1.982000e+00	-4.490307e+01	-6.219993e-01	0	0
242500	1.982000e+00	-4.229145e+01	1.432147e-01	0	0
244453	1.982000e+00	-4.258958e+01	-1.086412e+00	0	0
246406	1.982000e+00	-2.814815e+01	3.169825e+00	0	0
248359	1.982000e+00	-3.388401e+01	1.761903e+01	0	0
250313	1.982000e+00	-2.266815e+01	-2.371942e+00	0	0
252266	1.982000e+00	-2.211072e+01	8.757452e-01	0	0
254219	1.982000e+00	-4.156946e+01	-4.871006e+00	0	0
256172	1.982000e+00	-4.113287e+01	-1.981112e+01	0	0
258125	1.982000e+00	-5.321052e+01	2.962349e-01	0	0
260078	1.982000e+00	-5.115255e+01	-2.182540e+00	0	0
262031	1.982000e+00	-6.420113e+01	-1.149902e+00	0	0
263984	1.982000e+00	-5.503885e+01	-2.112351e+00	0	0
265938	1.982000e+00	-4.873044e+01	1.686171e+00	0	0
267891	1.982000e+00	-4.805063e+01	1.388221e+01	0	0
269844	1.982000e+00	-4.550372e+01	-2.501602e+00	0	0
271797	1.982000e+00	-4.306154e+01	5.301573e-01	0	0
273750	1.982000e+00	-3.338511e+01	-2.554981e+00	0	0
275703	1.982000e+00	-4.545718e+01	-1.159161e+01	0	0
277656	1.982000e+00	-4.906370e+01	1.052102e+00	0	0
279609	1.982000e+00	-4.403499e+01	-5.550758e-01	0	0
281563	1.982000e+00	-4.681127e+01	-9.843511e-03	0	0
283516	1.982000e+00	-4.988736e+01	-5.854425e-01	0	0
285469	1.982000e+00	-5.946974e+01	1.214160e+00	0	0
287422	1.982000e+00	-4.203101e+01	7.076320e+00	0	0
289375	1.982000e+00	-5.559640e+01	-1.070594e+00	0	0
291328	1.982000e+00	-5.576893e+01	2.981287e-01	0	0
293281	1.982000e+00	-4.908678e+01	-1.353132e+00	0	0
295234	1.982000e+00	-5.834547e+01	-7.006321e+00	0	0
297188	1.982000e+00	-6.110392e+01	-2.118321e+00	0	0
299141	1.982000e+00	-7.220648e+01	-1.227589e-01	0	0
301094	1.982000e+00	-7.467982e+01	-1.315821e-01	0	0
303047	1.982000e+00	-5.945295e+01	-5.542980e-01	0	0
305000	1.982000e+00	-5.616212e+01	1.188197e+00	0	0
306953	1.982000e+00	-5.606813e+01	6.765423e+00	0	0
308906	1.982000e+00	-5.341820e+01	-1.152113e+00	0	0
310859	1.982000e+00	-4.674008e+01	-1.152773e-01	0	0
312813	1.982000e+00	-4.425080e+01	2.741617e-01	0	0
314766	1.982000e+00	-4.784658e+01	-2.596515e+00	0	0
316719	1.982000e+00	-4.522317e+01	-1.142997e+01	0	0
318672	1.982000e+00	-4.594693e+01	1.028802e+00	0	0
320625	1.982000e+00	-5.348375e+01	-4.963116e-01	0	0
322578	1.982000e+00	-5.534561e+01	9.734030e-01	0	0
324531	1.982000e+00	-5.262995e+01	-5.727328e-01	0	0
326484	1.981818e+00	-5.934972e+01	3.308350e+00	0	0
328438	1.981183e+00	-4.789293e+01	1.790714e+01	0	0
330391	1.982000e+00	-5.127670e+01	-2.471857e+00	0	0
332344	1.982000e+00	-3.826541e+01	1.283020e+00	0	0
334297	1.982000e+00	-5.136850e+01	-4.022767e+00	0	0
336250	1.981817e+00	-4.866436e+01	-1.890632e+01	0	0
338203	1.981183e+00	-5.281774e+01	8.471068e-01	0	0
340156	1.981817e+00	-5.553034e+01	-1.377152e+00	0	0
342109	1.981183e+00	-5.191020e+01	1.769001e-01	0	0
344063	1.982000e+00	-6.010384e+01	-9.717823e-01	0	0
346016	1.982000e+00	-2.709960e+01	2.548604e+00	0	0
347969	1.982000e+00	2.234193e+01	1.353672e+01	0	0
349922	1.982000e+00	4.985076e+01	-1.896268e+00	0	0
351875	1.982000e+00	6.934717e+01	7.699352e-01	0	0
353828	1.981816e+00	7.789119e+01	-2.519659e+00	0	0
355781	1.981184e+00	8.808025e+01	-1.110438e+01	0	0
357734	1.982000e+00	8.906263e+01	1.014372e+00	0	0
359688	1.982000e+00	7.895750e+01	-5.745354e-01	0	0
361641	1.981815e+00	8.339904e+01	9.884485e-03	0	0
363594	1.981000e+00	8.469051e+01	-7.389579e-01	0	0
365547	1.981000e+00	7.550530e+01	1.736209e+00	0	0
367500	1.981185e+00	8.469943e+01	9.414813e+00	0	0
369453	1.981815e+00	1.114431e+02	-1.377266e+00	0	0
371406	1.981000e+00	1.224238e+02	3.831904e-01	0	0
373359	1.981000e+00	1.314014e+02	-1.499025e+00	0	0
375313	1.981000e+00	1.265931e+02	-1.064826e+01	0	0
377266	1.981000e+00	1.175517e+02	-9.001357e+00	0	0
379219	1.981000e+00	1.265345e+02	5.891154e-01	0	0
381172	1.981000e+00	1.181814e+02	-2.869340e-01	0	0
383125	1.981000e+00	1.334195e+02	-7.385281e-01	0	0
385078	1.981000e+00	1.574115e+02	2.019801e+00	0	0
387031	1.981000e+00	1.635632e+02	1.077295e+01	0	0
388984	1.981000e+00	1.590854e+02	-1.434915e+00	0	0
390938	1.981000e+00	1.604742e+02	1.134579e-02	0	0
392891	1.981000e+00	1.571344e+02	7.228318e-02	0	0
394844	1.981000e+00	1.494819e+02	-4.615048e+00	0	0
396797	1.981000e+00	1.457624e+02	-1.353037e+01	0	0
398750	1.981000e+00	1.123222e+02	1.280576e+00	0	0
400703	1.981000e+00	1.076833e+02	-6.788129e-01	0	0
402656	1.981000e+00	9.205826e+01	1.148347e-01	0	0
404609	1.981000e+00	9.824159e+01	-1.102680e+00	0	0
406563	1.981000e+00	8.554223e+01	3.098282e+00	0	0
408516	1.981000e+00	7.456597e+01	1.587748e+01	0	0
410469	1.981000e+00	4.900250e+01	-2.285109e+00	0	0
412422	1.981000e+00	2.009429e+01	1.144324e+00	0	0
414375	1.981000e+00	2.010706e+01	-3.744637e+00	0	0
416328	1.981000e+00	9.670911e-01	-1.649736e+01	0	0
418281	1.981000e+00	-9.910814e+00	1.644363e+00	0	0
420234	1.981000e+00	-2.439928e+01	-7.769158e-01	0	0
422188	1.981000e+00	-5.127639e+01	1.212749e-01	0	0
424141	1.981000e+00	-6.692678e+01	-1.052248e+00	0	0
426094	1.981000e+00	-5.971893e+01	2.850105e+00	0	0
428047	1.981000e+00	-6.259529e+01	1.451456e+01	0	0
430000	1.981000e+00	-5.993755e+01	-2.087151e+00	0	0
431953	1.981000e+00	-4.895281e+01	8.877888e-01	0	0
433906	1.981000e+00	-5.484747e+01	-2.911450e+00	0	0
435859	1.981000e+00	-7.023299e+01	-1.241231e+01	0	0
437813	1.981000e+00	-8.868419e+01	1.177207e+00	0	0
439766	1.981000e+00	-1.061624e+02	-6.335550e-01	0	0
441719	1.981000e+00	-1.145733e+02	-8.771171e-03	0	0
443672	1.981000e+00	-1.208753e+02	-6.992680e-01	0	0
445625	1.981000e+00	-1.223563e+02	1.497954e+00	0	0
447578	1.981000e+00	-1.167510e+02	7.968077e+00	0	0
449531	1.981000e+00	-1.035151e+02	-1.278929e+00	0	0
451484	1.981000e+00	-1.020521e+02	4.269140e-01	0	0
453438	1.981000e+00	-1.101667e+02	-1.869485e+00	0	0
455391	1.981000e+00	-1.204203e+02	-7.607946e+00	0	0
457344	1.981000e+00	-1.284536e+02	6.271728e-01	0	0
459297	1.981000e+00	-1.400104e+02	-4.899373e-01	0	0
461250	1.981000e+00	-1.452432e+02	-5.609446e-02	0	0
463203	1.981000e+00	-1.551364e+02	-6.766418e-01	0	0
465156	1.981000e+00	-1.676541e+02	1.429953e+00	0	0
467109	1.981000e+00	-1.698107e+02	7.522451e+00	0	0
469063	1.981000e+00	-1.637235e+02	-1.108953e+00	0	0
471016	1.981000e+00	-1.572308e+02	-8.512556e-02	0	0
472969	1.981000e+00	-1.412232e+02	4.013586e-02	0	0
474922	1.981000e+00	-1.390512e+02	-3.252001e+00	0	0
476875	1.981000e+00	-1.418770e+02	-9.885446e+00	0	0
478828	1.981000e+00	-1.329454e+02	8.686934e-01	0	0
480781	1.981000e+00	-1.419710e+02	-5.238860e-01	0	0
482734	1.981000e+00	-1.554253e+02	-1.873038e-01	0	0
484688	1.981000e+00	-1.494493e+02	-1.083151e-01	0	0
486641	1.981000e+00	-1.462969e+02	7.151448e+00	0	0
488594	1.981000e+00	-1.481995e+02	1.350592e+01	0	0
490547	1.981000e+00	-1.536081e+02	-1.994554e+00	0	0
492500	1.981000e+00	-1.552287e+02	1.054996e+00	0	0
494453	1.981000e+00	-1.527997e+02	-3.780761e+00	0	0
496406	1.981000e+00	-1.611343e+02	-1.606487e+01	0	0
498359	1.981000e+00	-1.466767e+02	1.622473e+00	0	0
500313	1.981000e+00	-1.553358e+02	-7.990210e-01	0	0
502266	1.981000e+00	-1.790849e+02	1.334011e-01	0	0
504219	1.981000e+00	-2.210537e+02	-1.174145e+00	0	0
506172	1.981000e+00	-2.538204e+02	3.253145e+00	0	0
508125	1.981000e+00	-2.410052e+02	1.585988e+01	0	0
510078	1.981000e+00	-2.012159e+02	-2.344505e+00	0	0
512031	1.981000e+00	-1.261681e+02	1.090548e+00	0	0
513984	1.981000e+00	-4.284544e+01	-3.589266e+00	0	0
515938	1.981000e+00	3.213965e+01	-1.489718e+01	0	0
517891	1.981000e+00	1.204799e+02	1.486849e+00	0	0
519844	1.981000e+00	2.214733e+02	-7.456911e-01	0	0
521797	1.981000e+00	4.361105e+02	3.548393e-02	0	0
523750	1.981000e+00	7.205849e+02	-8.588107e-01	0	0
525703	1.981000e+00	9.615094e+02	2.021050e+00	0	0
527656	1.981000e+00	1.225946e+03	1.004127e+01	0	0
529609	1.981000e+00	1.488071e+03	-1.518242e+00	0	0
531563	1.981000e+00	1.725972e+03	3.138100e-01	0	0
533516	1.981000e+00	1.865498e+03	-1.260438e+00	0	0
535469	1.981000e+00	1.793430e+03	-7.990970e+00	0	0
537422	1.981000e+00	1.688516e+03	-6.981829e+00	0	0
539375	1.981000e+00	1.387359e+03	4.169068e-01	0	0
541328	1.981000e+00	1.004925e+03	-3.350115e-01	0	0
543281	1.981000e+00	8.203844e+02	-5.627595e-01	0	0
545234	1.981000e+00	6.247504e+02	1.152838e+00	0	0
547188	1.981000e+00	4.496620e+02	6.156756e+00	0	0
549141	1.981000e+00	1.147512e+02	-1.069742e+00	0	0
551094	1.981000e+00	-1.616540e+02	1.840963e-01	0	0
553047	1.981000e+00	-2.260575e+02	-1.213078e+00	0	0
555000	1.981000e+00	-2.877114e+02	-7.384145e+00	0	0
556953	1.981000e+00	-2.630636e+02	-5.975626e+00	0	0
558906	1.981000e+00	-2.279995e+02	3.257543e-01	0	0
560859	1.981000e+00	-2.167041e+02	-3.952300e-01	0	0
562813	1.981000e+00	-1.768667e+02	-2.538336e-01	0	0
564766	1.981000e+00	-1.488259e+02	-7.379992e-02	0	0
566719	1.981000e+00	-1.217367e+02	4.699170e+00	0	0
568672	1.981000e+00	-9.467131e+01	8.001879e+00	0	0
570625	1.981000e+00	-7.416112e+01	-1.364117e+00	0	0
572578	1.981000e+00	-6.924716e+01	6.869862e-01	0	0
574531	1.981000e+00	-7.695688e+01	-3.015528e+00	0	0
576484	1.981000e+00	-9.326051e+01	-1.288094e+01	0	0
578438	1.981000e+00	-1.010650e+02	-1.745889e-01	0	0
580391	1.981000e+00	-1.094195e+02	-5.567553e-01	0	0
582344	1.981000e+00	-1.124981e+02	8.973905e-02	0	0
584297	1.981000e+00	-1.235531e+02	-1.336947e+00	0	0
586250	1.981000e+00	-1.247415e+02	3.886285e+00	0	0
588203	1.981000e+00	-1.260698e+02	1.813555e+01	0	0
590156	1.981000e+00	-1.141967e+02	-2.732925e+00	0	0
592109	1.981000e+00	-1.093454e+02	1.374010e+00	0	0
594063	1.981000e+00	-1.105336e+02	-4.482279e+00	0	0
596016	1.981000e+00	-1.015520e+02	-1.804432e+01	0	0
597969	1.981000e+00	-1.142299e+02	1.325536e+00	0	0
599922	1.981000e+00	-1.133080e+02	-2.371656e+00	0	0
601875	1.981000e+00	-1.111863e+02	-7.772811e-01	0	0
603828	1.980797e+00	-1.064263e+02	-1.076528e+00	0	0
605781	1.980203e+00	-1.180686e+02	2.152173e+00	0	0
607734	1.981000e+00	-1.057874e+02	1.030813e+01	0	0
609688	1.981000e+00	-1.043959e+02	-1.674834e+00	0	0
611641	1.980796e+00	-9.772675e+01	6.210485e-01	0	0
613594	1.980000e+00	-1.021457e+02	-1.230269e+00	0	0
615547	1.980000e+00	-9.205953e+01	-6.951433e+00	0	0
617500	1.980000e+00	-9.708649e+01	5.605896e-01	0	0
619453	1.980204e+00	-9.606597e+01	-5.085233e-01	0	0
621406	1.980796e+00	-8.889125e+01	-1.052188e-01	0	0
623359	1.980204e+00	-8.336583e+01	-6.516296e-01	0	0
625313	1.981000e+00	-7.582551e+01	1.191602e+00	0	0
627266	1.980795e+00	-7.844727e+01	6.012115e+00	0	0
629219	1.980205e+00	-7.584528e+01	-1.052817e+00	0	0
631172	1.980795e+00	-7.497220e+01	4.103083e-02	0	0
633125	1.980000e+00	-7.667061e+01	-7.368582e-01	0	0
635078	1.980000e+00	-8.088769e+01	-5.300672e+00	0	0
637031	1.980205e+00	-8.405817e+01	-6.486280e+00	0	0
638984	1.980795e+00	-9.029569e+01	4.084222e-01	0	0
640938	1.980000e+00	-1.022004e+02	-3.827592e-01	0	0
642891	1.980000e+00	-9.840453e+01	-4.828155e-01	0	0
644844	1.980000e+00	-9.333589e+01	7.725791e-01	0	0
646797	1.980000e+00	-9.022241e+01	8.563678e+00	0	0
648750	1.980000e+00	-6.811771e+01	7.814026e+00	0	0
650703	1.980000e+00	-6.614712e+01	-1.314336e+00	0	0
652656	1.980000e+00	-5.449706e+01	6.564338e-01	0	0
654609	1.980000e+00	-4.411030e+01	-3.041770e+00	0	0
656563	1.980000e+00	-5.343553e+01	-1.181678e+01	0	0
658516	1.980000e+00	-6.479427e+01	1.155465e+00	0	0
660469	1.980000e+00	-3.901489e+01	-7.145398e-01	0	0
662422	1.980000e+00	-3.171109e+01	7.488745e-02	0	0
664375	1.980000e+00	-3.784101e+01	-1.215256e+00	0	0
666328	1.980000e+00	-3.734938e+01	3.303613e+00	0	0
668281	1.980000e+00	-3.060220e+01	1.498180e+01	0	0
670234	1.980000e+00	-2.571874e+01	-2.370712e+00	0	0
672188	1.980000e+00	-1.559506e+01	1.113677e+00	0	0
674141	1.980000e+00	-2.257633e+01	-3.868234e+00	0	0
676094	1.980000e+00	-2.702756e+01	-1.482217e+01	0	0
678047	1.980000e+00	-2.998030e+01	1.517206e+00	0	0
680000	1.980000e+00	-3.072386e+01	-7.897506e-01	0	0
681953	1.980000e+00	-2.252292e+01	-9.628596e-03	0	0
683906	1.980000e+00	-2.250566e+01	-8.252318e-01	0	0
685859	1.980000e+00	-2.283635e+01	1.740443e+00	0	0
687813	1.980000e+00	-1.646864e+01	8.201419e+00	0	0
689766	1.980000e+00	-2.258314e+00	-1.430864e+00	0	0
691719	1.980000e+00	8.770239e+00	4.247908e-01	0	0
693672	1.980000e+00	1.271181e+01	-8.766890e-01	0	0
695625	1.980000e+00	1.539617e+01	-4.941497e+00	0	0
697578	1.980000e+00	9.851274e+00	3.092492e-01	0	0
699531	1.980000e+00	1.110969e+01	-4.516174e-01	0	0
701484	1.980000e+00	1.800008e+01	-1.773326e-01	0	0
703438	1.980000e+00	1.739999e+01	-5.165168e-01	0	0
705391	1.980000e+00	1.869879e+01	6.022865e-01	0	0
707344	1.980000e+00	2.629799e+01	3.391029e+00	0	0
709297	1.980000e+00	3.552722e+01	-7.947170e-01	0	0
711250	1.980000e+00	4.845147e+01	6.498296e-02	0	0
713203	1.980000e+00	6.222752e+01	-1.191678e+00	0	0
715156	1.980000e+00	7.100323e+01	-3.892427e+00	0	0
717109	1.980000e+00	6.287103e+01	1.649519e-01	0	0
719063	1.980000e+00	7.036003e+01	-4.035717e-01	0	0
721016	1.980000e+00	8.509524e+01	-2.492495e-01	0	0
722969	1.980000e+00	8.816868e+01	-2.996235e-01	0	0
724922	1.980000e+00	1.022034e+02	-2.407200e-01	0	0
726875	1.980000e+00	1.128143e+02	2.155087e+00	0	0
728828	1.980000e+00	1.155282e+02	3.980088e+00	0	0
730781	1.980000e+00	1.228417e+02	-1.312472e+00	0	0
732734	1.980000e+00	1.402448e+02	4.334954e-01	0	0
734688	1.980000e+00	1.437093e+02	-2.430671e+00	0	0
736641	1.980000e+00	1.485372e+02	-8.801224e+00	0	0
738594	1.980000e+00	1.524212e+02	7.931580e-01	0	0
740547	1.980000e+00	1.581336e+02	-6.320765e-01	0	0
742500	1.980000e+00	1.586750e+02	1.385631e-01	0	0
744453	1.980000e+00	1.918881e+02	-1.252152e+00	0	0
746406	1.980000e+00	2.063324e+02	3.620012e+00	0	0
748359	1.980000e+00	2.328159e+02	1.569855e+01	0	0
750313	1.980000e+00	2.479963e+02	-2.578399e+00	0	0
752266	1.980000e+00	2.551256e+02	1.327729e+00	0	0
754219	1.980000e+00	2.700786e+02	-4.660242e+00	0	0
756172	1.980000e+00	2.741810e+02	-1.741527e+01	0	0
758125	1.980000e+00	2.745833e+02	1.577389e+00	0	0
760078	1.980000e+00	2.872258e+02	-8.895306e-01	0	0
762031	1.980000e+00	2.902243e+02	7.974588e-02	0	0
763984	1.980000e+00	3.030697e+02	-1.179314e+00	0	0
765938	1.980000e+00	3.164804e+02	3.045003e+00	0	0
767891	1.980000e+00	3.313714e+02	1.308014e+01	0	0
769844	1.980000e+00	3.614511e+02	-2.135368e+00	0	0
771797	1.980000e+00	3.587329e+02	7.455290e-01	0	0
773750	1.980000e+00	3.719123e+02	-2.712083e+00	0	0
775703	1.980000e+00	3.709821e+02	-9.413838e+00	0	0
777656	1.980000e+00	3.871930e+02	8.603862e-01	0	0
779609	1.980000e+00	3.880193e+02	-6.230348e-01	0	0
781563	1.980000e+00	3.870764e+02	-1.389388e-01	0	0
783516	1.980000e+00	3.998529e+02	-5.939249e-01	0	0
785469	1.980000e+00	4.024153e+02	7.886579e-01	0	0
787422	1.980000e+00	4.216056e+02	3.958454e+00	0	0
789375	1.980000e+00	4.375711e+02	-8.220141e-01	0	0
791328	1.980000e+00	4.461384e+02	-2.130824e-01	0	0
793281	1.980000e+00	4.563432e+02	-1.102621e-01	0	0
795234	1.980000e+00	4.509158e+02	-1.173921e+00	0	0
797188	1.980000e+00	4.538170e+02	-3.779946e+00	0	0
799141	1.980000e+00	4.509462e+02	1.267190e-01	0	0
801094	1.980000e+00	4.239045e+02	-3.465557e-01	0	0
803047	1.980000e+00	4.182706e+02	-5.373877e-01	0	0
805000	1.980000e+00	4.024910e+02	7.461124e-01	0	0
806953	1.980000e+00	3.764863e+02	3.813008e+00	0	0
808906	1.980000e+00	3.555254e+02	-7.976157e-01	0	0
810859	1.980000e+00	3.358063e+02	-2.737335e-01	0	0
812813	1.980000e+00	3.115100e+02	8.550130e-02	0	0
814766	1.980000e+00	2.866614e+02	-1.957064e+00	0	0
816719	1.980000e+00	2.481468e+02	-6.769839e+00	0	0
818672	1.980000e+00	2.119530e+02	5.132599e-01	0	0
820625	1.980000e+00	1.937523e+02	-4.738876e-01	0	0
822578	1.980000e+00	1.562686e+02	-4.382335e-01	0	0
824531	1.980000e+00	1.352126e+02	4.772647e-01	0	0
826484	1.980000e+00	1.121425e+02	8.700883e+00	0	0
828438	1.980000e+00	1.009158e+02	1.055464e+01	0	0
830391	1.980000e+00	6.835370e+01	-1.830507e+00	0	0
832344	1.980000e+00	4.340160e+01	9.483425e-01	0	0
834297	1.980000e+00	2.099772e+01	-3.969388e+00	0	0
836250	1.980000e+00	-3.656302e+00	-1.446176e+01	0	0
838203	1.980000e+00	-1.313542e+01	6.753362e-01	0	0
840156	1.980000e+00	-2.645687e+01	-7.523968e-01	0	0
842109	1.980000e+00	-4.626588e+01	5.971271e-02	0	0
844063	1.980000e+00	-6.855546e+01	-1.335586e+00	0	0
846016	1.980000e+00	-8.170930e+01	3.622427e+00	0	0
847969	1.980000e+00	-1.008124e+02	1.480777e+01	0	0
849922	1.980000e+00	-1.114471e+02	-2.497440e+00	0	0
851875	1.980000e+00	-1.196379e+02	1.111256e+00	0	0
853828	1.980000e+00	-1.173088e+02	-3.974950e+00	0	0
855781	1.980000e+00	-1.085867e+02	-1.370547e+01	0	0
857734	1.980000e+00	-1.260720e+02	1.427748e+00	0	0
859688	1.980000e+00	-1.389731e+02	-8.067684e-01	0	0
861641	1.980000e+00	-1.435243e+02	-7.051780e-02	0	0
863594	1.980000e+00	-1.558360e+02	-7.810838e-01	0	0
865547	1.980000e+00	-1.451800e+02	1.406013e+00	0	0
867500	1.980000e+00	-1.407286e+02	6.187175e+00	0	0
869453	1.980000e+00	-1.372676e+02	-1.225488e+00	0	0
871406	1.980000e+00	-1.427503e+02	1.721263e-01	0	0
873359	1.980000e+00	-1.344668e+02	-1.394231e+00	0	0
875313	1.980000e+00	-1.397352e+02	-4.144462e+00	0	0
877266	1.980000e+00	-1.458182e+02	1.870044e-01	0	0
879219	1.980000e+00	-1.573348e+02	-4.653115e-01	0	0
881172	1.980000e+00	-1.603413e+02	-2.169402e-01	0	0
883125	1.980000e+00	-1.709186e+02	-5.604771e-01	0	0
885078	1.980000e+00	-1.713978e+02	6.087276e-01	0	0
887031	1.979773e+00	-1.786109e+02	3.178788e+00	0	0
888984	1.979227e+00	-1.968567e+02	-8.498945e-01	0	0
890938	1.980000e+00	-1.724944e+02	9.850036e-02	0	0
892891	1.979772e+00	-1.701223e+02	-1.505958e+00	0	0
894844	1.979000e+00	-1.685521e+02	-4.614374e+00	0	0
896797	1.979228e+00	-1.844433e+02	2.509942e-01	0	0
898750	1.980000e+00	-1.817717e+02	-4.991153e-01	0	0
900703	1.979771e+00	-1.655202e+02	-1.693728e-01	0	0
902656	1.979000e+00	-1.814128e+02	-7.406950e-01	0	0
904609	1.979000e+00	-1.780592e+02	1.321971e+00	0	0
906563	1.979000e+00	-1.776724e+02	1.001500e+01	0	0
908516	1.979230e+00	-1.995185e+02	6.839273e+00	0	0
910469	1.979770e+00	-1.822292e+02	-1.335205e+00	0	0
912422	1.979000e+00	-1.714889e+02	7.296462e-01	0	0
914375	1.979000e+00	-1.809608e+02	-3.680735e+00	0	0
916328	1.979000e+00	-1.829861e+02	-1.247891e+01	0	0
918281	1.979000e+00	-1.810635e+02	1.296719e+00	0	0
920234	1.979000e+00	-1.797651e+02	-8.266697e-01	0	0
922188	1.979000e+00	-1.880558e+02	6.971033e-02	0	0
924141	1.979000e+00	-1.948976e+02	-1.395125e+00	0	0
926094	1.979000e+00	-2.059721e+02	3.773848e+00	0	0
928047	1.979000e+00	-1.989999e+02	1.477205e+01	0	0
930000	1.979000e+00	-2.005666e+02	-2.581214e+00	0	0
931953	1.979000e+00	-1.824088e+02	1.207507e+00	0	0
933906	1.979000e+00	-1.783259e+02	-4.403957e+00	0	0
935859	1.979000e+00	-1.814135e+02	-1.464578e+01	0	0
937813	1.979000e+00	-1.667904e+02	1.579689e+00	0	0
939766	1.979000e+00	-1.754503e+02	-8.836730e-01	0	0
941719	1.979000e+00	-1.899304e+02	-9.860081e-03	0	0
943672	1.979000e+00	-2.045762e+02	-1.044011e+00	0	0
945625	1.979000e+00	-1.884997e+02	2.354573e+00	0	0
947578	1.979000e+00	-1.846132e+02	9.423337e+00	0	0
949531	1.979000e+00	-1.766593e+02	-1.761824e+00	0	0
951484	1.979000e+00	-1.656199e+02	5.427289e-01	0	0
953438	1.979000e+00	-1.730003e+02	-2.501423e+00	0	0
955391	1.979000e+00	-1.870262e+02	-7.994599e+00	0	0
957344	1.979000e+00	-1.857786e+02	3.042148e-01	0	0
959297	1.979000e+00	-1.852249e+02	-5.844785e-01	0	0
961250	1.979000e+00	-1.913542e+02	-1.447227e-01	0	0
963203	1.979000e+00	-1.947220e+02	-8.274504e-01	0	0
965156	1.979000e+00	-1.857513e+02	1.559674e+00	0	0
967109	1.979000e+00	-1.710235e+02	6.417658e+00	0	0
969063	1.979000e+00	-1.689618e+02	-1.202401e+00	0	0
971016	1.979000e+00	-1.588361e+02	-2.225291e-01	0	0
972969	1.979000e+00	-1.546849e+02	9.043678e-02	0	0
974922	1.979000e+00	-1.612841e+02	-2.245242e+00	0	0
976875	1.979000e+00	-1.646909e+02	-7.192049e+00	0	0
978828	1.979000e+00	-1.585503e+02	5.526946e-01	0	0
980781	1.979000e+00	-1.727042e+02	-4.591598e-01	0	0
982734	1.979000e+00	-1.895962e+02	-7.308559e-01	0	0
984688	1.979000e+00	-1.889338e+02	1.498540e+00	0	0
986641	1.979000e+00	-1.900659e+02	1.058864e+01	0	0
988594	1.979000e+00	-1.841513e+02	6.411576e+00	0	0
990547	1.979000e+00	-1.657297e+02	-2.020393e+00	0	0
992500	1.979000e+00	-1.658934e+02	9.267514e-01	0	0
994453	1.979000e+00	-1.695429e+02	-4.246200e+00	0	0
996406	1.979000e+00	-1.591868e+02	-1.411148e+01	0	0
998359	1.979000e+00	-1.701531e+02	1.009940e+00	0	0
1000313	1.979000e+00	-1.696881e+02	-8.399982e-01	0	0
1002266	1.979000e+00	-1.744177e+02	9.701088e-01	0	0
1004219	1.979000e+00	-1.880051e+02	6.169744e-01	0	0
1006172	1.979000e+00	-1.798717e+02	7.684467e+00	0	0
1008125	1.979000e+00	-1.778232e+02	2.034382e+01	0	0
1010078	1.979000e+00	-1.735744e+02	-3.448755e+00	0	0
1012031	1.979000e+00	-1.569782e+02	1.729357e+00	0	0
1013984	1.979000e+00	-1.650461e+02	-5.804762e+00	0	0
1015938	1.979000e+00	-1.749559e+02	-1.882328e+01	0	0
1017891	1.979000e+00	-1.812485e+02	8.993846e-01	0	0
1019844	1.979000e+00	-1.841704e+02	-4.120215e+00	0	0
1021797	1.979000e+00	-1.950272e+02	-3.147650e+00	0	0
1023750	1.979000e+00	-2.027617e+02	-3.209204e+00	0	0
1025703	1.979000e+00	-1.825382e+02	2.474658e+00	0	0
1027656	1.979000e+00	-1.836425e+02	1.039430e+01	0	0
1029609	1.979000e+00	-1.713899e+02	-2.890192e+00	0	0
1031563	1.979000e+00	-1.689745e+02	1.824741e-01	0	0
1033516	1.979000e+00	-1.677197e+02	-2.043253e+00	0	0
1035469	1.979000e+00	-1.748232e+02	-6.763800e+00	0	0
1037422	1.979000e+00	-1.902530e+02	3.785907e+00	0	0
1039375	1.979000e+00	-1.852859e+02	2.112934e+00	0	0
1041328	1.979000e+00	-1.745013e+02	2.189502e+00	0	0
1043281	1.979000e+00	-1.865307e+02	2.858957e-01	0	0
1045234	1.979000e+00	-1.876878e+02	2.206354e+00	0	0
1047188	1.979000e+00	-1.884669e+02	7.995547e+00	0	0
1049141	1.979000e+00	-1.800572e+02	-1.643702e+00	0	0
1051094	1.979000e+00	-1.861017e+02	4.968613e-01	0	0
1053047	1.979000e+00	-1.900958e+02	-2.759105e+00	0	0
1055000	1.979000e+00	-1.844011e+02	-8.148028e+00	0	0
1056953	1.979000e+00	-1.915871e+02	5.485818e-01	0	0
1058906	1.979000e+00	-2.004667e+02	-1.860929e+00	0	0
1060859	1.979000e+00	-2.036318e+02	-2.803111e+00	0	0
1062813	1.979000e+00	-2.091122e+02	-3.608600e+00	0	0
1064766	1.979000e+00	-2.034832e+02	-8.680779e-01	0	0
1066719	1.979000e+00	-1.960315e+02	6.787396e+00	0	0
1068672	1.979000e+00	-2.062181e+02	3.072095e+00	0	0
1070625	1.979000e+00	-1.904160e+02	1.021425e+00	0	0
1072578	1.979000e+00	-1.858261e+02	1.928680e+00	0	0
1074531	1.979000e+00	-1.838350e+02	-2.082838e+00	0	0
1076484	1.979000e+00	-1.945481e+02	-9.068451e+00	0	0
1078438	1.979000e+00	-1.866252e+02	3.501142e+00	0	0
1080391	1.979000e+00	-1.884988e+02	3.796127e+00	0	0
1082344	1.979000e+00	-1.765233e+02	4.582523e+00	0	0
1084297	1.979000e+00	-1.650945e+02	1.650410e+00	0	0
1086250	1.979000e+00	-1.670192e+02	4.770173e+00	0	0
1088203	1.979000e+00	-1.488548e+02	1.410610e+01	0	0
1090156	1.979000e+00	-1.107218e+02	-2.910656e+00	0	0
1092109	1.979000e+00	-8.977954e+01	1.245909e+00	0	0
1094063	1.979000e+00	-7.978985e+01	-5.763972e+00	0	0
1096016	1.979000e+00	-7.151498e+01	-1.948866e+01	0	0
1097969	1.979000e+00	-7.219229e+01	-4.284678e+00	0	0
1099922	1.979000e+00	-7.877667e+01	-7.399088e+00	0	0
1101875	1.979000e+00	-7.655244e+01	-5.159671e+00	0	0
1103828	1.979000e+00	-7.932926e+01	-3.989645e+00	0	0
1105781	1.979000e+00	-7.609606e+01	4.901440e-01	0	0
1107734	1.979000e+00	-7.170450e+01	7.041674e+00	0	0
1109688	1.979000e+00	-5.921980e+01	-3.776733e+00	0	0
1111641	1.979000e+00	-3.498178e+01	-3.509656e-01	0	0
1113594	1.979000e+00	-3.481999e+01	-2.251068e-01	0	0
1115547	1.979000e+00	-2.709382e+01	-3.825214e+00	0	0
1117500	1.979000e+00	-2.163679e+01	4.322339e+00	0	0
1119453	1.979000e+00	-2.766060e+01	2.350227e+00	0	0
1121406	1.979000e+00	-2.408194e+01	1.905173e+00	0	0
1123359	1.979000e+00	-1.408707e+01	-7.408813e-02	0	0
1125313	1.979000e+00	6.595742e+00	1.556259e+00	0	0
1127266	1.979000e+00	3.013029e+01	6.314940e+00	0	0
1129219	1.979000e+00	2.613539e+01	-1.439579e+00	0	0
1131172	1.979000e+00	3.175995e+01	4.225408e-01	0	0
1133125	1.979000e+00	2.547522e+01	-2.572915e+00	0	0
1135078	1.979000e+00	1.756881e+01	-7.366629e+00	0	0
1137031	1.979000e+00	2.540335e+01	6.111786e-01	0	0
1138984	1.979000e+00	1.940596e+01	-5.082081e-01	0	0
1140938	1.979000e+00	1.197875e+00	4.556016e-01	0	0
1142891	1.979000e+00	-1.093857e+01	3.122667e-02	0	0
1144844	1.979000e+00	-1.578775e+01	2.672112e+00	0	0
1146797	1.979000e+00	-3.793777e+00	1.111418e+01	0	0
1148750	1.979000e+00	-1.765305e+01	6.696067e+00	0	0
1150703	1.978749e+00	-3.686545e+01	-5.776854e-01	0	0
1152656	1.978251e+00	-5.413396e+01	1.220972e+00	0	0
1154609	1.979000e+00	-7.616618e+01	-4.046375e+00	0	0
1156563	1.979000e+00	-1.045390e+02	-1.257722e+01	0	0
1158516	1.978748e+00	-1.194933e+02	1.367951e+00	0	0
1160469	1.978252e+00	-1.493833e+02	-9.283656e-01	0	0
1162422	1.979000e+00	-1.755754e+02	1.117215e-01	0	0
1164375	1.978748e+00	-1.693374e+02	-1.762850e+00	0	0
1166328	1.978253e+00	-1.856242e+02	4.911298e+00	0	0
1168281	1.979000e+00	-2.013021e+02	1.691929e+01	0	0
1170234	1.979000e+00	-2.063511e+02	-3.331119e+00	0	0
1172188	1.978747e+00	-2.093440e+02	1.490625e+00	0	0
1174141	1.978000e+00	-2.235967e+02	-6.330968e+00	0	0
1176094	1.978000e+00	-2.371139e+02	-1.841825e+01	0	0
1178047	1.978000e+00	-2.463356e+02	1.868165e+00	0	0
1180000	1.978000e+00	-2.599464e+02	-1.421721e+00	0	0
1181953	1.978000e+00	-2.625501e+02	-1.543571e-01	0	0
1183906	1.978254e+00	-2.568040e+02	-1.639759e+00	0	0
1185859	1.978746e+00	-2.539565e+02	4.026143e+00	0	0
1187813	1.978000e+00	-2.417449e+02	1.370873e+01	0	0
1189766	1.978000e+00	-2.497083e+02	-2.588631e+00	0	0
1191719	1.978000e+00	-2.470533e+02	9.949086e-01	0	0
1193672	1.978000e+00	-2.499375e+02	-3.865229e+00	0	0
1195625	1.978000e+00	-2.566798e+02	-1.097169e+01	0	0
1197578	1.978000e+00	-2.485682e+02	1.126263e+00	0	0
1199531	1.978000e+00	-2.591189e+02	-8.178260e-01	0	0
1201484	1.978000e+00	-2.732332e+02	-1.365282e-01	0	0
1203438	1.978000e+00	-2.722657e+02	-9.210874e-01	0	0
1205391	1.978000e+00	-2.709084e+02	1.658896e+00	0	0
1207344	1.978000e+00	-2.702868e+02	6.067510e+00	0	0
1209297	1.978000e+00	-2.694062e+02	-1.367417e+00	0	0
1211250	1.978000e+00	-2.718933e+02	1.276478e-01	0	0
1213203	1.978000e+00	-2.822721e+02	-1.526392e+00	0	0
1215156	1.978000e+00	-2.809603e+02	-6.282537e+00	0	0
1217109	1.978000e+00	-2.757000e+02	-4.135984e+00	0	0
1219063	1.978000e+00	-2.927281e+02	1.395751e-01	0	0
1221016	1.978000e+00	-2.957998e+02	-3.544682e-01	0	0
1222969	1.978000e+00	-2.944716e+02	-5.933902e-01	0	0
1224922	1.978000e+00	-2.932038e+02	8.961918e-01	0	0
1226875	1.978000e+00	-2.827868e+02	3.535218e+00	0	0
1228828	1.978000e+00	-2.745149e+02	-7.074046e-01	0	0
1230781	1.978000e+00	-2.694670e+02	1.171157e-01	0	0
1232734	1.978000e+00	-2.637706e+02	-3.314487e-01	0	0
1234688	1.978000e+00	-2.684502e+02	-3.342314e+00	0	0
1236641	1.978000e+00	-2.861671e+02	-4.106711e+00	0	0
1238594	1.978000e+00	-2.903867e+02	6.962315e-01	0	0
1240547	1.978000e+00	-2.893398e+02	-4.883233e-02	0	0
1242500	1.978000e+00	-2.936424e+02	4.207905e-01	0	0
1244453	1.978000e+00	-3.122251e+02	-5.301262e-01	0	0
1246406	1.978000e+00	-3.330337e+02	3.134293e+00	0	0
1248359	1.978000e+00	-3.471952e+02	9.371399e+00	0	0
1250313	1.978000e+00	-3.476702e+02	-1.336325e+00	0	0
1252266	1.978000e+00	-3.341050e+02	1.657462e+00	0	0
1254219	1.978000e+00	-3.093819e+02	-4.071967e+00	0	0
1256172	1.978000e+00	-2.466152e+02	-1.276384e+01	0	0
1258125	1.978000e+00	-1.603220e+02	2.110175e+00	0	0
1260078	1.978000e+00	-5.661776e+01	-3.999410e-01	0	0
1262031	1.978000e+00	2.587869e+01	6.676306e-01	0	0
1263984	1.978000e+00	1.566513e+02	-1.254178e+00	0	0
1265938	1.978000e+00	3.606196e+02	5.527420e+00	0	0
1267891	1.978000e+00	6.228223e+02	1.680815e+01	0	0
1269844	1.978000e+00	8.754419e+02	-2.749497e+00	0	0
1271797	1.978000e+00	1.149922e+03	1.917730e+00	0	0
1273750	1.978000e+00	1.385060e+03	-5.539915e+00	0	0
1275703	1.978000e+00	1.604672e+03	-1.620029e+01	0	0
1277656	1.978000e+00	1.693056e+03	2.082771e+00	0	0
1279609	1.978000e+00	1.575241e+03	-1.016494e+00	0	0
1281563	1.978000e+00	1.398451e+03	9.939555e-03	0	0
1283516	1.978000e+00	1.095131e+03	-1.357689e+00	0	0
1285469	1.978000e+00	8.354066e+02	3.273571e+00	0	0
1287422	1.978000e+00	6.224113e+02	1.078050e+01	0	0
1289375	1.978000e+00	4.706139e+02	-2.179039e+00	0	0
1291328	1.978000e+00	2.983708e+02	6.592400e-01	0	0
1293281	1.978000e+00	3.340551e+01	-3.034857e+00	0	0
1295234	1.978000e+00	-1.824051e+02	-1.029932e+01	0	0
1297188	1.978000e+00	-2.963564e+02	-3.101053e+00	0	0
1299141	1.978000e+00	-3.707773e+02	-2.033350e-01	0	0
1301094	1.978000e+00	-3.993305e+02	-2.998864e-01	0	0
1303047	1.978000e+00	-3.972913e+02	-1.003186e+00	0	0
1305000	1.978000e+00	-3.614321e+02	2.065620e+00	0	0
1306953	1.978000e+00	-3.288898e+02	7.091436e+00	0	0
1308906	1.978000e+00	-3.030442e+02	-1.616270e+00	0	0
1310859	1.978000e+00	-2.594831e+02	3.667821e-01	0	0
1312813	1.978000e+00	-2.263582e+02	-2.437370e+00	0	0
1314766	1.978000e+00	-2.230568e+02	-1.024816e+01	0	0
1316719	1.978000e+00	-2.261106e+02	-6.165079e+00	0	0
1318672	1.978000e+00	-2.128570e+02	2.921830e-01	0	0
1320625	1.978000e+00	-2.131823e+02	-5.568077e-01	0	0
1322578	1.978000e+00	-2.279286e+02	-4.948325e-01	0	0
1324531	1.978000e+00	-2.316591e+02	1.951935e-01	0	0
1326484	1.978000e+00	-2.327859e+02	6.855903e+00	0	0
1328438	1.978000e+00	-2.329550e+02	8.351893e+00	0	0
1330391	1.978000e+00	-2.287596e+02	-1.841548e+00	0	0
1332344	1.978000e+00	-2.403899e+02	7.558635e-01	0	0
1334297	1.978000e+00	-2.348660e+02	-4.154071e+00	0	0
1336250	1.978000e+00	-2.476901e+02	-1.104446e+01	0	0
1338203	1.978000e+00	-2.556346e+02	8.298851e-01	0	0
1340156	1.978000e+00	-2.480776e+02	-1.258180e+00	0	0
1342109	1.978000e+00	-2.206486e+02	-4.782807e-01	0	0
1344063	1.978000e+00	-2.350023e+02	-1.887515e+00	0	0
1346016	1.978000e+00	-2.292254e+02	2.907060e+00	0	0
1347969	1.978000e+00	-2.179562e+02	1.044405e+01	0	0
1349922	1.978000e+00	-2.138029e+02	-2.917826e+00	0	0
1351875	1.978000e+00	-2.064262e+02	3.773798e-01	0	0
1353828	1.978000e+00	-2.035637e+02	-4.879438e+00	0	0
1355781	1.978000e+00	-2.083383e+02	-1.198511e+01	0	0
1357734	1.978000e+00	-2.136006e+02	6.618526e-01	0	0
1359688	1.978000e+00	-2.137099e+02	-1.415646e+00	0	0
1361641	1.978000e+00	-2.168797e+02	-5.697101e-01	0	0
1363594	1.978000e+00	-2.184943e+02	-1.604470e+00	0	0
1365547	1.978000e+00	-2.181745e+02	2.215654e+00	0	0
1367500	1.978000e+00	-2.133840e+02	8.055879e+00	0	0
1369453	1.978000e+00	-2.094816e+02	-2.068783e+00	0	0
1371406	1.978000e+00	-1.998029e+02	4.376425e-01	0	0
1373359	1.978000e+00	-2.075444e+02	-3.033909e+00	0	0
1375313	1.978000e+00	-2.127085e+02	-7.914002e+00	0	0
1377266	1.978000e+00	-2.127843e+02	2.358343e-01	0	0
1379219	1.978000e+00	-2.136976e+02	-6.826596e-01	0	0
1381172	1.978000e+00	-2.222931e+02	-2.044634e-01	0	0
1383125	1.978000e+00	-2.187299e+02	-1.003644e+00	0	0
1385078	1.978000e+00	-2.233106e+02	1.868983e+00	0	0
1387031	1.978000e+00	-2.227197e+02	6.255033e+00	0	0
1388984	1.978000e+00	-1.987412e+02	-1.562248e+00	0	0
1390938	1.978000e+00	-1.902224e+02	4.475210e-01	0	0
1392891	1.978000e+00	-1.865744e+02	-2.908400e+00	0	0
1394844	1.978000e+00	-1.803758e+02	-7.352836e+00	0	0
1396797	1.978000e+00	-1.802549e+02	6.040194e-01	0	0
1398750	1.978000e+00	-1.717909e+02	-6.862518e-01	0	0
1400703	1.978000e+00	-1.786668e+02	-3.810444e-01	0	0
1402656	1.978000e+00	-1.751073e+02	4.528737e-02	0	0
1404609	1.978000e+00	-1.608201e+02	-7.587071e-01	0	0
1406563	1.978000e+00	-1.568512e+02	3.747741e+00	0	0
1408516	1.978000e+00	-1.503155e+02	1.043569e+01	0	0
1410469	1.977725e+00	-1.447510e+02	-1.368024e+00	0	0
1412422	1.977275e+00	-1.547138e+02	1.747800e+00	0	0
1414375	1.978000e+00	-1.518216e+02	-3.858343e+00	0	0
1416328	1.978000e+00	-1.585791e+02	-1.199436e+01	0	0
1418281	1.978000e+00	-1.505356e+02	4.204686e-01	0	0
1420234	1.978000e+00	-1.431345e+02	-8.270444e-01	0	0
1422188	1.978000e+00	-1.536249e+02	-4.492012e-02	0	0
1424141	1.978000e+00	-1.540636e+02	-1.547138e+00	0	0
1426094	1.978000e+00	-1.536296e+02	4.028320e+00	0	0
1428047	1.977724e+00	-1.425656e+02	1.227895e+01	0	0
1430000	1.977000e+00	-1.305112e+02	-2.420214e+00	0	0
1431953	1.977000e+00	-1.191595e+02	1.183540e+00	0	0
1433906	1.977000e+00	-1.153677e+02	-5.296878e+00	0	0
1435859	1.977000e+00	-1.211566e+02	-1.341292e+01	0	0
1437813	1.977000e+00	-1.029197e+02	-3.563959e-01	0	0
1439766	1.977000e+00	-1.138419e+02	-2.701367e+00	0	0
1441719	1.977000e+00	-1.073050e+02	-1.550844e+00	0	0
1443672	1.977000e+00	-9.352742e+01	-2.133526e+00	0	0
1445625	1.977000e+00	-1.029999e+02	2.215599e+00	0	0
1447578	1.977278e+00	-7.999909e+01	8.107028e+00	0	0
1449531	1.977722e+00	-6.534523e+01	-1.629017e+00	0	0
1451484	1.977000e+00	-6.502542e+01	6.557151e-01	0	0
1453438	1.977000e+00	-5.461552e+01	-2.641514e+00	0	0
1455391	1.977000e+00	-5.065369e+01	-8.445341e+00	0	0
1457344	1.977000e+00	-6.007167e+01	-2.174333e+00	0	0
1459297	1.977000e+00	-5.562544e+01	-2.231248e-01	0	0
1461250	1.977000e+00	-5.675396e+01	-2.364470e-01	0	0
1463203	1.977000e+00	-4.286019e+01	-1.023702e+00	0	0
1465156	1.977000e+00	-3.839812e+01	2.126858e+00	0	0
1467109	1.977000e+00	-2.444451e+01	6.744411e+00	0	0
1469063	1.977000e+00	-8.525652e+00	-1.649013e+00	0	0
1471016	1.977000e+00	4.241079e+00	3.705830e-01	0	0
1472969	1.977000e+00	1.106740e+01	-1.874252e+00	0	0
1474922	1.977000e+00	1.923020e+01	-9.394804e+00	0	0
1476875	1.977000e+00	2.215123e+01	-5.904892e+00	0	0
1478828	1.977000e+00	2.857177e+01	1.861583e+00	0	0
1480781	1.977000e+00	4.052653e+01	1.197432e+00	0	0
1482734	1.977000e+00	4.603525e+01	5.408310e-01	0	0
1484688	1.977000e+00	5.333843e+01	4.652252e+00	0	0
1486641	1.977000e+00	6.330111e+01	1.042433e+01	0	0
1488594	1.977000e+00	7.835642e+01	-2.464837e-01	0	0
1490547	1.977000e+00	8.528963e+01	8.989868e-01	0	0
1492500	1.977000e+00	9.562942e+01	1.391152e+00	0	0
1494453	1.977000e+00	1.138762e+02	-4.308703e+00	0	0
1496406	1.977000e+00	1.224232e+02	-1.215264e+01	0	0
1498359	1.977000e+00	1.344029e+02	1.364558e+00	0	0
1500313	1.977000e+00	1.434757e+02	-1.011319e+00	0	0
1502266	1.977000e+00	1.620547e+02	2.936361e-02	0	0
1504219	1.977000e+00	1.629654e+02	-1.759060e+00	0	0
1506172	1.977000e+00	1.661075e+02	4.731765e+00	0	0
1508125	1.977000e+00	1.680766e+02	1.378425e+01	0	0
1510078	1.977000e+00	1.827065e+02	-2.935683e+00	0	0
1512031	1.977000e+00	2.156215e+02	1.409850e+00	0	0
1513984	1.977000e+00	2.224082e+02	-5.745221e+00	0	0
1515938	1.977000e+00	2.299189e+02	-1.434801e+01	0	0
1517891	1.977000e+00	2.375873e+02	1.588435e+00	0	0
1519844	1.977000e+00	2.588509e+02	-1.704592e+00	0	0
1521797	1.977000e+00	2.669764e+02	-9.576240e-01	0	0
1523750	1.977000e+00	2.755732e+02	-2.383142e+00	0	0
1525703	1.977000e+00	2.934996e+02	2.737685e+00	0	0
1527656	1.977000e+00	3.062618e+02	9.790335e+00	0	0
1529609	1.977000e+00	3.208869e+02	-2.200702e+00	0	0
1531563	1.977000e+00	3.245091e+02	6.803200e-01	0	0
1533516	1.977000e+00	3.227447e+02	-3.420279e+00	0	0
1535469	1.977000e+00	3.262251e+02	-8.106691e+00	0	0
1537422	1.977000e+00	3.184249e+02	7.281535e-01	0	0
1539375	1.977000e+00	3.213148e+02	-7.981760e-01	0	0
1541328	1.977000e+00	3.147035e+02	-2.335433e-01	0	0
1543281	1.977000e+00	3.006643e+02	-9.681961e-01	0	0
1545234	1.977000e+00	2.880287e+02	1.553457e+00	0	0
1547188	1.977000e+00	2.880738e+02	4.950496e+00	0	0
1549141	1.977000e+00	2.660431e+02	-1.396995e+00	0	0
1551094	1.977000e+00	2.429914e+02	2.231108e-01	0	0
1553047	1.977000e+00	2.209922e+02	-2.353586e+00	0	0
1555000	1.977000e+00	2.077146e+02	-6.009430e+00	0	0
1556953	1.977000e+00	1.742139e+02	-7.124864e-01	0	0
1558906	1.977000e+00	1.379820e+02	-5.405580e-01	0	0
1560859	1.977000e+00	1.117333e+02	-2.993015e-01	0	0
1562813	1.977000e+00	7.847677e+01	-9.877460e-01	0	0
1564766	1.977000e+00	5.868069e+01	1.705778e+00	0	0
1566719	1.977000e+00	2.806561e+01	6.951288e+00	0	0
1568672	1.977000e+00	9.721871e+00	1.654651e+00	0	0
1570625	1.977000e+00	-8.879978e+00	-1.217470e-01	0	0
1572578	1.977000e+00	-2.743325e+01	9.912703e-01	0	0
1574531	1.977000e+00	-6.007595e+01	-3.748812e+00	0	0
1576484	1.977000e+00	-9.261503e+01	-9.695194e+00	0	0
1578438	1.977000e+00	-1.072347e+02	9.921376e-01	0	0
1580391	1.977000e+00	-1.176830e+02	-9.259929e-01	0	0
1582344	1.977000e+00	-1.400991e+02	-3.649761e-02	0	0
1584297	1.977000e+00	-1.570920e+02	-1.679093e+00	0	0
1586250	1.977000e+00	-1.600961e+02	4.370610e+00	0	0
1588203	1.977000e+00	-1.629417e+02	1.233252e+01	0	0
1590156	1.977000e+00	-1.733750e+02	-2.736771e+00	0	0
1592109	1.977000e+00	-1.731335e+02	1.226475e+00	0	0
1594063	1.977000e+00	-1.762318e+02	-5.713089e+00	0	0
1596016	1.977000e+00	-1.939575e+02	-1.375456e+01	0	0
1597969	1.977000e+00	-2.073297e+02	1.886343e-01	0	0
1599922	1.977000e+00	-2.169608e+02	-2.902228e+00	0	0
1601875	1.977000e+00	-2.260577e+02	-1.757076e+00	0	0
1603828	1.977000e+00	-2.344757e+02	-2.054537e+00	0	0
1605781	1.977000e+00	-2.368074e+02	2.585146e+00	0	0
1607734	1.977000e+00	-2.502777e+02	8.190599e+00	0	0
1609688	1.977000e+00	-2.426327e+02	-1.974839e+00	0	0
1611641	1.977000e+00	-2.234225e+02	5.334542e-01	0	0
1613594	1.977000e+00	-2.376638e+02	-3.146564e+00	0	0
1615547	1.977000e+00	-2.470456e+02	-7.136498e+00	0	0
1617500	1.977000e+00	-2.605788e+02	5.793948e-01	0	0
1619453	1.977000e+00	-2.646563e+02	-7.838821e-01	0	0
1621406	1.977000e+00	-2.576635e+02	-2.379191e-01	0	0
1623359	1.977000e+00	-2.578333e+02	-8.813304e-01	0	0
1625313	1.977000e+00	-2.451710e+02	1.918839e+00	0	0
1627266	1.977000e+00	-2.563362e+02	5.166015e+00	0	0
1629219	1.977000e+00	-2.530159e+02	-1.363063e+00	0	0
1631172	1.977000e+00	-2.451074e+02	-1.542224e-01	0	0
1633125	1.977000e+00	-2.464967e+02	-6.803212e-01	0	0
1635078	1.977000e+00	-2.379713e+02	-4.073329e+00	0	0
1637031	1.977000e+00	-2.481413e+02	-4.464916e+00	0	0
1638984	1.977000e+00	-2.459879e+02	1.329017e+00	0	0
1640938	1.977000e+00	-2.528466e+02	6.945334e-01	0	0
1642891	1.977000e+00	-2.618476e+02	2.612850e-01	0	0
1644844	1.977000e+00	-2.609601e+02	2.831381e+00	0	0
1646797	1.977000e+00	-2.593961e+02	6.066512e+00	0	0
1648750	1.977000e+00	-2.607638e+02	-6.852803e-01	0	0
1650703	1.977000e+00	-2.697844e+02	1.925686e-02	0	0
1652656	1.977000e+00	-2.733474e+02	-6.759591e-01	0	0
1654609	1.977000e+00	-2.639721e+02	-6.255365e+00	0	0
1656563	1.977000e+00	-2.698269e+02	-8.747306e+00	0	0
1658516	1.977000e+00	-2.724614e+02	8.078078e-01	0	0
1660469	1.977000e+00	-2.670149e+02	-9.094195e-01	0	0
1662422	1.977000e+00	-2.718639e+02	-1.651072e-02	0	0
1664375	1.977000e+00	-2.659625e+02	-1.873794e+00	0	0
1666328	1.977000e+00	-2.587200e+02	5.106688e+00	0	0
1668281	1.977000e+00	-2.461322e+02	1.379884e+01	0	0
1670234	1.977000e+00	-2.333954e+02	-3.110978e+00	0	0
1672188	1.977000e+00	-2.410155e+02	1.620832e+00	0	0
1674141	1.977000e+00	-2.408374e+02	-6.767692e+00	0	0
1676094	1.977000e+00	-2.334273e+02	-1.585565e+01	0	0
1678047	1.977000e+00	-2.344313e+02	1.950008e+00	0	0
1680000	1.976701e+00	-2.513972e+02	-1.238339e+00	0	0
1681953	1.976299e+00	-2.655840e+02	5.364591e-02	0	0
1683906	1.977000e+00	-2.584474e+02	-1.935574e+00	0	0
1685859	1.977000e+00	-2.472230e+02	5.180359e+00	0	0
1687813	1.977000e+00	-2.462498e+02	1.382044e+01	0	0
1689766	1.976700e+00	-2.380084e+02	-3.040315e+00	0	0
1691719	1.976300e+00	-2.262591e+02	1.206185e+00	0	0
1693672	1.976700e+00	-2.188356e+02	-5.142632e+00	0	0
1695625	1.976000e+00	-2.218500e+02	-1.163913e+01	0	0
1697578	1.976000e+00	-2.397955e+02	1.261828e+00	0	0
1699531	1.976301e+00	-2.442110e+02	-1.003568e+00	0	0
1701484	1.976699e+00	-2.451511e+02	-2.571587e-01	0	0
1703438	1.976301e+00	-2.510261e+02	-9.801420e-01	0	0
1705391	1.976699e+00	-2.372856e+02	1.312928e+00	0	0
1707344	1.976000e+00	-2.202210e+02	4.001299e+00	0	0
1709297	1.976000e+00	-2.171382e+02	-1.275838e+00	0	0
1711250	1.976000e+00	-2.035823e+02	-7.392111e-02	0	0
1713203	1.976302e+00	-2.082474e+02	-1.529834e+00	0	0
1715156	1.976698e+00	-2.362892e+02	-3.812559e+00	0	0
1717109	1.976302e+00	-2.372605e+02	-1.452050e+00	0	0
1719063	1.976697e+00	-2.345428e+02	-4.142778e-01	0	0
1721016	1.976000e+00	-2.402930e+02	-4.535529e-01	0	0
1722969	1.976000e+00	-2.259070e+02	-7.608716e-01	0	0
1724922	1.976303e+00	-2.298053e+02	6.052734e-01	0	0
1726875	1.976697e+00	-2.145997e+02	2.213709e+00	0	0
1728828	1.976000e+00	-2.012094e+02	-9.141554e-01	0	0
1730781	1.976000e+00	-2.059877e+02	-4.135507e-01	0	0
1732734	1.976000e+00	-2.022433e+02	-4.069856e-01	0	0
1734688	1.976000e+00	-2.040845e+02	-2.963217e+00	0	0
1736641	1.976000e+00	-2.096913e+02	-4.585949e+00	0	0
1738594	1.976000e+00	-2.102039e+02	1.437701e-01	0	0
1740547	1.976000e+00	-2.267665e+02	-6.406817e-01	0	0
1742500	1.976000e+00	-2.486170e+02	-5.254705e-01	0	0
1744453	1.976000e+00	-2.470926e+02	-1.037466e-01	0	0
1746406	1.976000e+00	-2.370582e+02	5.739011e+00	0	0
1748359	1.976000e+00	-2.364466e+02	7.164209e+00	0	0
1750313	1.976000e+00	-2.218838e+02	-1.923702e+00	0	0
1752266	1.976000e+00	-2.223277e+02	8.316956e-01	0	0
1754219	1.976000e+00	-2.321426e+02	-4.708748e+00	0	0
1756172	1.976000e+00	-2.357295e+02	-1.049980e+01	0	0
1758125	1.976000e+00	-2.437875e+02	1.123585e+00	0	0
1760078	1.976000e+00	-2.424739e+02	-1.003888e+00	0	0
1762031	1.976000e+00	-2.461175e+02	-7.627801e-02	0	0
1763984	1.976000e+00	-2.428672e+02	-1.661943e+00	0	0
1765938	1.976000e+00	-2.417227e+02	4.152481e+00	0	0
1767891	1.976000e+00	-2.425924e+02	1.081774e+01	0	0
1769844	1.976000e+00	-2.424342e+02	-2.598908e+00	0	0
1771797	1.976000e+00	-2.316361e+02	1.114262e+00	0	0
1773750	1.976000e+00	-2.285091e+02	-5.231008e+00	0	0
1775703	1.976000e+00	-2.299795e+02	-1.154246e+01	0	0
1777656	1.976000e+00	-2.283291e+02	1.287016e+00	0	0
1779609	1.976000e+00	-2.280798e+02	-1.040485e+00	0	0
1781563	1.976000e+00	-2.359631e+02	-1.167203e-01	0	0
1783516	1.976000e+00	-2.429723e+02	-1.487038e+00	0	0
1785469	1.976000e+00	-2.337466e+02	3.401545e+00	0	0
1787422	1.976000e+00	-2.328605e+02	8.884036e+00	0	0
1789375	1.976000e+00	-2.430402e+02	-2.191726e+00	0	0
1791328	1.976000e+00	-2.564731e+02	6.126000e-01	0	0
1793281	1.976000e+00	-2.354593e+02	-3.550738e+00	0	0
1795234	1.976000e+00	-2.221388e+02	-1.006601e+01	0	0
1797188	1.976000e+00	-2.262140e+02	-3.082059e+00	0	0
1799141	1.976000e+00	-2.216412e+02	-2.704881e-01	0	0
1801094	1.976000e+00	-2.185352e+02	-3.935788e-01	0	0
1803047	1.976000e+00	-2.251320e+02	-1.173736e+00	0	0
1805000	1.976000e+00	-2.138757e+02	2.312030e+00	0	0
1806953	1.976000e+00	-1.903542e+02	6.251715e+00	0	0
1808906	1.976000e+00	-1.687676e+02	-1.741041e+00	0	0
1810859	1.976000e+00	-1.308096e+02	3.559886e-01	0	0
1812813	1.976000e+00	-1.287048e+02	-2.961035e+00	0	0
1814766	1.976000e+00	-1.214572e+02	-8.953533e+00	0	0
1816719	1.976000e+00	-1.191927e+02	-3.704530e+00	0	0
1818672	1.976000e+00	-1.104873e+02	-1.157799e-01	0	0
1820625	1.976000e+00	-1.095464e+02	-5.662393e-01	0	0
1822578	1.976000e+00	-1.170278e+02	-6.614636e-01	0	0
1824531	1.976000e+00	-1.153288e+02	3.127426e-01	0	0
1826484	1.976000e+00	-1.013725e+02	6.867252e+00	0	0
1828438	1.976000e+00	-9.359399e+01	7.067348e+00	0	0
1830391	1.976000e+00	-7.351876e+01	-1.936844e+00	0	0
1832344	1.976000e+00	-5.765223e+01	8.414326e-01	0	0
1834297	1.976000e+00	-4.980414e+01	-4.859024e+00	0	0
1836250	1.976000e+00	-3.615341e+01	-1.047571e+01	0	0
1838203	1.976000e+00	-4.383691e+01	1.128049e+00	0	0
1840156	1.976000e+00	-4.903940e+01	-1.037665e+00	0	0
1842109	1.976000e+00	-4.928054e+01	-4.331958e-02	0	0
1844063	1.976000e+00	-4.189766e+01	-1.859928e+00	0	0
1846016	1.976000e+00	-3.259087e+01	4.889472e+00	0	0
1847969	1.976000e+00	-7.987479e+00	1.216943e+01	0	0
1849922	1.976000e+00	3.991025e+00	-2.901840e+00	0	0
1851875	1.976000e+00	1.778185e+00	1.310179e+00	0	0
1853828	1.976000e+00	-3.031937e-01	-5.880501e+00	0	0
1855781	1.976000e+00	-6.547256e+00	-1.258710e+01	0	0
1857734	1.976000e+00	-1.586838e+01	1.462928e+00	0	0
1859688	1.976000e+00	-2.283621e+01	-1.104561e+00	0	0
1861641	1.976000e+00	-3.322834e+01	-1.352650e-01	0	0
1863594	1.976000e+00	-4.577826e+01	-1.446725e+00	0	0
1865547	1.976000e+00	-4.543475e+01	3.154752e+00	0	0
1867500	1.976000e+00	-3.990080e+01	8.001008e+00	0	0
1869453	1.976000e+00	-4.603150e+01	-2.085165e+00	0	0
1871406	1.976000e+00	-5.262721e+01	5.504921e-01	0	0
1873359	1.976000e+00	-5.933726e+01	-3.495378e+00	0	0
1875313	1.976000e+00	-8.115438e+01	-8.390018e+00	0	0
1877266	1.976000e+00	-1.061048e+02	-1.230316e+00	0	0
1879219	1.976000e+00	-1.288474e+02	-5.724130e-01	0	0
1881172	1.976000e+00	-1.560806e+02	-3.245119e-01	0	0
1883125	1.976000e+00	-1.741415e+02	-1.245647e+00	0	0
1885078	1.976000e+00	-1.959330e+02	2.457132e+00	0	0
1887031	1.976000e+00	-1.908423e+02	6.337414e+00	0	0
1888984	1.976000e+00	-2.070759e+02	-1.755209e+00	0	0
1890938	1.976000e+00	-2.174883e+02	2.148408e-01	0	0
1892891	1.976000e+00	-2.198272e+02	-2.466794e+00	0	0
1894844	1.976000e+00	-2.394649e+02	-9.497234e+00	0	0
1896797	1.976000e+00	-2.441274e+02	-6.493333e+00	0	0
1898750	1.976000e+00	-2.576133e+02	3.248070e-01	0	0
1900703	1.976000e+00	-2.607861e+02	-6.371367e-01	0	0
1902656	1.976000e+00	-2.763067e+02	-9.161054e-01	0	0
1904609	1.976000e+00	-2.831859e+02	1.412816e+00	0	0
1906563	1.976000e+00	-2.700095e+02	9.277134e+00	0	0
1908516	1.976000e+00	-2.741115e+02	6.387250e+00	0	0
1910469	1.976000e+00	-2.746678e+02	-1.837621e+00	0	0
1912422	1.976000e+00	-2.702351e+02	8.543189e-01	0	0
1914375	1.976000e+00	-2.801779e+02	-5.148874e+00	0	0
1916328	1.976000e+00	-2.877681e+02	-1.078461e+01	0	0
1918281	1.976000e+00	-2.816149e+02	1.190083e+00	0	0
1920234	1.976000e+00	-2.927805e+02	-1.097981e+00	0	0
1922188	1.976000e+00	-2.990378e+02	3.924021e-02	0	0
1924141	1.976000e+00	-2.941849e+02	-2.224887e+00	0	0
1926094	1.976000e+00	-3.041192e+02	6.324037e+00	0	0
1928047	1.976000e+00	-3.093158e+02	1.502014e+01	0	0
1930000	1.976000e+00	-3.045044e+02	-3.547422e+00	0	0
1931953	1.976000e+00	-2.968014e+02	1.922455e+00	0	0
1933906	1.976000e+00	-3.075026e+02	-7.993420e+00	0	0
1935859	1.976000e+00	-3.251114e+02	-1.698186e+01	0	0
1937813	1.976000e+00	-3.172938e+02	1.737453e+00	0	0
1939766	1.976000e+00	-3.089147e+02	-1.527754e+00	0	0
1941719	1.976000e+00	-3.117872e+02	5.897452e-02	0	0
1943672	1.976000e+00	-3.160319e+02	-1.987012e+00	0	0
1945625	1.976000e+00	-3.125555e+02	5.232079e+00	0	0
1947578	1.976000e+00	-2.986603e+02	1.236808e+01	0	0
1949531	1.975677e+00	-2.934419e+02	-2.928386e+00	0	0
1951484	1.975000e+00	-2.903325e+02	1.052828e+00	0	0
1953438	1.975000e+00	-2.886853e+02	-4.881682e+00	0	0
1955391	1.975000e+00	-2.962130e+02	-9.811133e+00	0	0
1957344	1.975000e+00	-2.978998e+02	1.076421e+00	0	0
1959297	1.975324e+00	-3.022219e+02	-5.156759e-01	0	0
1961250	1.976000e+00	-3.050692e+02	5.249027e-01	0	0
1963203	1.975675e+00	-3.120700e+02	-3.497607e-01	0	0
1965156	1.975325e+00	-3.254648e+02	2.498123e+00	0	0
1967109	1.975675e+00	-3.231984e+02	5.245375e+00	0	0
1969063	1.975325e+00	-3.436008e+02	-1.191217e+00	0	0
1971016	1.975674e+00	-3.658366e+02	2.760693e-01	0	0
1972969	1.975000e+00	-3.715867e+02	-2.497607e+00	0	0
1974922	1.975000e+00	-3.608024e+02	-6.714803e+00	0	0
1976875	1.975000e+00	-3.312091e+02	-2.670980e+00	0	0
1978828	1.975326e+00	-2.599294e+02	-2.937072e-01	0	0
1980781	1.975674e+00	-1.761737e+02	-5.039729e-01	0	0
1982734	1.975000e+00	-7.405546e+01	-9.274135e-01	0	0
1984688	1.975000e+00	2.909764e+01	1.216441e+00	0	0
1986641	1.975000e+00	1.753713e+02	8.174735e+00	0	0
1988594	1.975000e+00	4.172293e+02	5.603755e+00	0	0
1990547	1.975000e+00	7.030278e+02	-1.748376e+00	0	0
1992500	1.975000e+00	9.529734e+02	7.812657e-01	0	0
1994453	1.975000e+00	1.233626e+03	-5.049882e+00	0	0
1996406	1.975000e+00	1.483422e+03	-1.020839e+01	0	0
1998359	1.975000e+00	1.686645e+03	1.096403e+00	0	0
2000313	1.975000e+00	1.739296e+03	-1.084520e+00	0	0
2002266	1.975000e+00	1.616998e+03	-1.937580e-02	0	0
2004219	1.975000e+00	1.440687e+03	-2.101337e+00	0	0
2006172	1.975000e+00	1.103587e+03	5.764917e+00	0	0
2008125	1.975000e+00	8.417553e+02	1.327081e+01	0	0
2010078	1.975000e+00	6.306129e+02	-3.257908e+00	0	0
2012031	1.975000e+00	4.660373e+02	1.638065e+00	0	0
2013984	1.975000e+00	2.417757e+02	-7.198143e+00	0	0
2015938	1.975000e+00	-1.150522e+02	-1.499313e+01	0	0
2017891	1.975000e+00	-3.040082e+02	4.565182e-01	0	0
2019844	1.975000e+00	-3.766274e+02	-2.891625e+00	0	0
2021797	1.975000e+00	-4.266127e+02	-1.781080e+00	0	0
2023750	1.975000e+00	-4.128066e+02	-3.079533e+00	0	0
2025703	1.975000e+00	-3.687592e+02	3.176284e+00	0	0
2027656	1.975000e+00	-3.422107e+02	9.061564e+00	0	0
2029609	1.975000e+00	-3.139652e+02	-2.376528e+00	0	0
2031563	1.975000e+00	-2.586459e+02	6.852174e-01	0	0
2033516	1.975000e+00	-2.292415e+02	-3.983804e+00	0	0
2035469	1.975000e+00	-2.161415e+02	-7.615704e+00	0	0
2037422	1.975000e+00	-2.250138e+02	6.448044e-01	0	0
2039375	1.975000e+00	-2.196070e+02	-9.120470e-01	0	0
2041328	1.975000e+00	-2.237643e+02	-3.044877e-01	0	0
2043281	1.975000e+00	-2.429732e+02	-1.180388e+00	0	0
2045234	1.975000e+00	-2.372218e+02	1.957213e+00	0	0
2047188	1.975000e+00	-2.350349e+02	4.773730e+00	0	0
2049141	1.975000e+00	-2.283403e+02	-1.447190e+00	0	0
2051094	1.975000e+00	-2.210751e+02	-3.263433e-01	0	0
2053047	1.975000e+00	-2.099719e+02	-6.289329e-01	0	0
2055000	1.975000e+00	-2.076410e+02	-4.309881e+00	0	0
2056953	1.975000e+00	-2.041949e+02	-5.574458e+00	0	0
2058906	1.975000e+00	-1.992416e+02	2.208660e-01	0	0
2060859	1.975000e+00	-2.043856e+02	-5.846997e-01	0	0
2062813	1.975000e+00	-2.182009e+02	-1.217249e+00	0	0
2064766	1.975000e+00	-2.203443e+02	2.416528e+00	0	0
2066719	1.975000e+00	-2.193451e+02	6.063509e+00	0	0
2068672	1.975000e+00	-2.180811e+02	-5.785093e-01	0	0
2070625	1.975000e+00	-2.059888e+02	1.120433e+00	0	0
2072578	1.975000e+00	-1.960491e+02	1.003268e+00	0	0
2074531	1.975000e+00	-2.050190e+02	-5.965202e+00	0	0
2076484	1.975000e+00	-2.240962e+02	-9.314927e+00	0	0
2078438	1.975000e+00	-2.256320e+02	9.510020e-01	0	0
2080391	1.975000e+00	-2.287677e+02	-1.070852e+00	0	0
2082344	1.975000e+00	-2.205601e+02	-1.848388e-02	0	0
2084297	1.975000e+00	-2.130544e+02	-2.215520e+00	0	0
2086250	1.975000e+00	-2.082015e+02	6.192599e+00	0	0
2088203	1.975000e+00	-1.927825e+02	1.372883e+01	0	0
2090156	1.975000e+00	-1.816983e+02	-3.422108e+00	0	0
2092109	1.975000e+00	-1.635663e+02	1.790352e+00	0	0
2094063	1.975000e+00	-1.656692e+02	-8.088026e+00	0	0
2096016	1.975000e+00	-1.614552e+02	-1.583913e+01	0	0
2097969	1.975000e+00	-1.585015e+02	1.664625e+00	0	0
2099922	1.975000e+00	-1.543059e+02	-1.428603e+00	0	0
2101875	1.975000e+00	-1.607343e+02	4.442758e-02	0	0
2103828	1.975000e+00	-1.589787e+02	-2.176343e+00	0	0
2105781	1.975000e+00	-1.575798e+02	5.927961e+00	0	0
2107734	1.975000e+00	-1.592282e+02	1.302052e+01	0	0
2109688	1.975000e+00	-1.576410e+02	-3.228441e+00	0	0
2111641	1.975000e+00	-1.583287e+02	1.427106e+00	0	0
2113594	1.975000e+00	-1.529585e+02	-6.452381e+00	0	0
2115547	1.975000e+00	-1.583568e+02	-1.234051e+01	0	0
2117500	1.975000e+00	-1.606611e+02	1.453668e+00	0	0
2119453	1.975000e+00	-1.627163e+02	-1.178843e+00	0	0
2121406	1.975000e+00	-1.470099e+02	-1.429775e-01	0	0
2123359	1.975000e+00	-1.270011e+02	-1.656560e+00	0	0
2125313	1.975000e+00	-1.216840e+02	3.808399e+00	0	0
2127266	1.975000e+00	-1.140094e+02	8.363714e+00	0	0
2129219	1.975000e+00	-1.019076e+02	-2.033699e+00	0	0
2131172	1.975000e+00	-1.019274e+02	-3.971208e-01	0	0
2133125	1.975000e+00	-1.004156e+02	2.037052e-01	0	0
2135078	1.975000e+00	-9.889103e+01	-4.212250e+00	0	0
2137031	1.975000e+00	-9.555705e+01	-8.067108e+00	0	0
2138984	1.975000e+00	-9.683966e+01	6.519876e-01	0	0
2140938	1.975000e+00	-1.010254e+02	-6.868689e-01	0	0
2142891	1.975000e+00	-1.015031e+02	-1.335626e+00	0	0
2144844	1.975000e+00	-1.074285e+02	2.960219e+00	0	0
2146797	1.975000e+00	-9.297637e+01	6.646421e+00	0	0
2148750	1.975000e+00	-9.154642e+01	-1.738916e+00	0	0
2150703	1.975000e+00	-8.756735e+01	-5.202146e-01	0	0
2152656	1.975000e+00	-8.617091e+01	3.777627e-01	0	0
2154609	1.975000e+00	-7.729883e+01	-4.880565e+00	0	0
2156563	1.975000e+00	-8.183935e+01	-9.379490e+00	0	0
2158516	1.975000e+00	-9.004603e+01	9.630946e-01	0	0
2160469	1.975000e+00	-8.297272e+01	-1.086771e+00	0	0
2162422	1.975000e+00	-8.878741e+01	-7.011362e-02	0	0
2164375	1.975000e+00	-6.534605e+01	-2.089700e+00	0	0
2166328	1.975000e+00	-5.273343e+01	5.612253e+00	0	0
2168281	1.975000e+00	-3.536677e+01	1.208137e+01	0	0
2170234	1.975000e+00	-3.082754e+01	-3.167833e+00	0	0
2172188	1.975000e+00	-4.097466e+00	1.629406e+00	0	0
2174141	1.975000e+00	3.137626e+00	-7.522545e+00	0	0
2176094	1.975000e+00	-6.380226e+00	-1.419491e+01	0	0
2178047	1.975000e+00	-6.280251e+00	1.787864e+00	0	0
2180000	1.975000e+00	-1.097108e+01	-1.316169e+00	0	0
2181953	1.975000e+00	-1.588696e+00	-8.531906e-04	0	0
2183906	1.975000e+00	-5.909408e+00	-2.160881e+00	0	0
2185859	1.975000e+00	1.299326e+01	5.831929e+00	0	0
2187813	1.975000e+00	2.406885e+01	1.236834e+01	0	0
2189766	1.975000e+00	2.678645e+01	-3.137371e+00	0	0
2191719	1.975000e+00	4.295267e+01	1.277001e+00	0	0
2193672	1.975000e+00	5.880585e+01	-6.015144e+00	0	0
2195625	1.975000e+00	6.642795e+01	-1.106132e+01	0	0
2197578	1.975000e+00	6.868113e+01	1.233044e+00	0	0
2199531	1.975000e+00	6.151737e+01	-1.113639e+00	0	0
2201484	1.975000e+00	7.822077e+01	-2.797165e-01	0	0
2203438	1.975000e+00	1.040204e+02	-1.272152e+00	0	0
2205391	1.975000e+00	1.026012e+02	2.150658e+00	0	0
2207344	1.975000e+00	1.044199e+02	4.872963e+00	0	0
2209297	1.975000e+00	1.258942e+02	-1.657691e+00	0	0
2211250	1.975000e+00	1.518322e+02	1.685177e-01	0	0
2213203	1.975000e+00	1.618322e+02	-2.753741e+00	0	0
2215156	1.975000e+00	1.795255e+02	-4.727729e+00	0	0
2217109	1.975000e+00	1.947380e+02	1.368699e-01	0	0
2219063	1.975000e+00	2.081012e+02	-8.140145e-01	0	0
2221016	1.975000e+00	2.168143e+02	-4.056540e-01	0	0
2222969	1.975000e+00	2.316402e+02	-1.090559e+00	0	0
2224922	1.975000e+00	2.411748e+02	1.455188e+00	0	0
2226875	1.975000e+00	2.585493e+02	3.406807e+00	0	0
2228828	1.975000e+00	2.814154e+02	-1.242974e+00	0	0
2230781	1.975000e+00	2.973552e+02	-5.576561e-01	0	0
2232734	1.975000e+00	3.127309e+02	-6.500864e-02	0	0
2234688	1.975000e+00	3.098511e+02	-2.983673e+00	0	0
2236641	1.975000e+00	3.294901e+02	-5.293315e+00	0	0
2238594	1.975000e+00	3.427853e+02	1.992560e-01	0	0
2240547	1.975000e+00	3.382682e+02	-7.062532e-01	0	0
2242500	1.974650e+00	3.417010e+02	-9.249181e-01	0	0
2244453	1.974350e+00	3.573012e+02	1.145828e+00	0	0
2246406	1.974650e+00	3.702797e+02	8.832582e+00	0	0
2248359	1.974350e+00	3.863810e+02	6.610122e+00	0	0
2250313	1.975000e+00	4.085416e+02	-2.119174e+00	0	0
2252266	1.974649e+00	4.238041e+02	1.120901e+00	0	0
2254219	1.974351e+00	4.236078e+02	-6.564504e+00	0	0
2256172	1.975000e+00	4.268799e+02	-1.202206e+01	0	0
2258125	1.975000e+00	4.238301e+02	1.428622e+00	0	0
2260078	1.975000e+00	4.156960e+02	-1.264265e+00	0	0
2262031	1.975000e+00	4.123028e+02	5.452588e-02	0	0
2263984	1.974648e+00	3.937679e+02	-2.530692e+00	0	0
2265938	1.974352e+00	3.832216e+02	7.366564e+00	0	0
2267891	1.974648e+00	3.744048e+02	1.496107e+01	0	0
2269844	1.974000e+00	3.574885e+02	-3.787121e+00	0	0
2271797	1.974353e+00	3.392945e+02	1.976489e+00	0	0
2273750	1.974647e+00	3.086523e+02	-8.551329e+00	0	0
2275703	1.974000e+00	2.753427e+02	-1.550972e+01	0	0
2277656	1.974000e+00	2.399201e+02	2.023478e+00	0	0
2279609	1.974000e+00	2.023637e+02	-1.381763e+00	0	0
2281563	1.974000e+00	1.731843e+02	-9.338092e-02	0	0
2283516	1.974000e+00	1.465364e+02	-1.844575e+00	0	0
2285469	1.974000e+00	1.117059e+02	4.419289e+00	0	0
2287422	1.974000e+00	8.201274e+01	9.071481e+00	0	0
2289375	1.974000e+00	6.044033e+01	-2.487792e+00	0	0
2291328	1.974000e+00	5.072505e+01	6.048437e-01	0	0
2293281	1.974000e+00	3.673937e+01	-3.937876e+00	0	0
2295234	1.974000e+00	7.407344e+00	-9.064391e+00	0	0
2297188	1.974000e+00	-2.184584e+01	-2.462711e+00	0	0
2299141	1.974000e+00	-4.961124e+01	-4.370315e-01	0	0
2301094	1.974000e+00	-6.862764e+01	-4.704046e-01	0	0
2303047	1.974000e+00	-8.650895e+01	-1.304739e+00	0	0
2305000	1.974000e+00	-9.355975e+01	2.395906e+00	0	0
2306953	1.974000e+00	-9.369070e+01	5.125390e+00	0	0
2308906	1.974000e+00	-1.041017e+02	-1.648909e+00	0	0
2310859	1.974000e+00	-1.177312e+02	-1.910943e-01	0	0
2312813	1.974000e+00	-1.278977e+02	-1.384171e+00	0	0
2314766	1.974000e+00	-1.363286e+02	-6.520451e+00	0	0
2316719	1.974000e+00	-1.456469e+02	-6.101184e+00	0	0
2318672	1.974000e+00	-1.559018e+02	2.702145e-01	0	0
2320625	1.974000e+00	-1.638394e+02	-6.805890e-01	0	0
2322578	1.974000e+00	-1.748651e+02	-1.194637e+00	0	0
2324531	1.974000e+00	-1.769790e+02	2.244434e+00	0	0
2326484	1.974000e+00	-1.761963e+02	1.109393e+01	0	0
2328438	1.974000e+00	-1.713568e+02	6.398018e+00	0	0
2330391	1.974000e+00	-1.643323e+02	-2.046945e+00	0	0
2332344	1.974000e+00	-1.631978e+02	9.427468e-01	0	0
2334297	1.974000e+00	-1.794003e+02	-6.007813e+00	0	0
2336250	1.974000e+00	-2.003215e+02	-1.208531e+01	0	0
2338203	1.974000e+00	-2.169062e+02	-6.861375e-01	0	0
2340156	1.974000e+00	-2.154872e+02	-8.773467e-01	0	0
2342109	1.974000e+00	-2.129990e+02	-1.382717e-01	0	0
2344063	1.974000e+00	-2.017829e+02	-2.244443e+00	0	0
2346016	1.974000e+00	-1.847455e+02	6.212621e+00	0	0
2347969	1.974000e+00	-1.854028e+02	1.228757e+01	0	0
2349922	1.974000e+00	-1.780620e+02	-3.284078e+00	0	0
2351875	1.974000e+00	-1.754858e+02	1.521252e+00	0	0
2353828	1.974000e+00	-1.787842e+02	-7.211239e+00	0	0
2355781	1.974000e+00	-1.775809e+02	-1.255770e+01	0	0
2357734	1.974000e+00	-1.831357e+02	1.487017e+00	0	0
2359688	1.974000e+00	-1.954085e+02	-1.410688e+00	0	0
2361641	1.974000e+00	-2.031483e+02	-5.780063e-01	0	0
2363594	1.974000e+00	-2.082756e+02	-1.993576e+00	0	0
2365547	1.974000e+00	-2.138743e+02	2.811927e+00	0	0
2367500	1.974000e+00	-2.222796e+02	6.297547e+00	0	0
2369453	1.974000e+00	-2.155293e+02	-1.999422e+00	0	0
2371406	1.974000e+00	-2.052347e+02	3.086800e-01	0	0
2373359	1.974000e+00	-2.014508e+02	-3.229997e+00	0	0
2375313	1.974000e+00	-2.045126e+02	-5.263528e+00	0	0
2377266	1.974000e+00	-2.023897e+02	2.171346e-01	0	0
2379219	1.974000e+00	-2.197353e+02	-8.921424e-01	0	0
2381172	1.974000e+00	-2.294895e+02	-2.792134e-01	0	0
2383125	1.974000e+00	-2.254602e+02	-6.872561e-01	0	0
2385078	1.974000e+00	-2.220013e+02	2.012255e+00	0	0
2387031	1.974000e+00	-2.152749e+02	3.786416e+00	0	0
2388984	1.974000e+00	-2.039649e+02	-1.139957e+00	0	0
2390938	1.974000e+00	-1.897188e+02	2.019640e-01	0	0
2392891	1.974000e+00	-1.900264e+02	-2.455613e+00	0	0
2394844	1.974000e+00	-1.915942e+02	-6.582072e+00	0	0
2396797	1.974000e+00	-1.990548e+02	-3.116644e+00	0	0
2398750	1.974000e+00	-2.001493e+02	-3.013666e-01	0	0
2400703	1.974000e+00	-2.012525e+02	-5.092259e-01	0	0
2402656	1.974000e+00	-2.122043e+02	-1.404178e+00	0	0
2404609	1.974000e+00	-2.115949e+02	2.773928e+00	0	0
2406563	1.974000e+00	-1.988998e+02	5.550857e+00	0	0
2408516	1.974000e+00	-1.995828e+02	-1.643626e+00	0	0
2410469	1.974000e+00	-2.062716e+02	-6.556496e-01	0	0
2412422	1.974000e+00	-1.981906e+02	5.127041e-01	0	0
2414375	1.974000e+00	-1.983144e+02	-5.748773e+00	0	0
2416328	1.974000e+00	-1.995177e+02	-9.981686e+00	0	0
2418281	1.974000e+00	-1.844579e+02	1.072714e+00	0	0
2420234	1.974000e+00	-1.908285e+02	-1.190210e+00	0	0
2422188	1.974000e+00	-1.864714e+02	-7.671601e-02	0	0
2424141	1.974000e+00	-1.836091e+02	-2.270977e+00	0	0
2426094	1.974000e+00	-1.848641e+02	6.189394e+00	0	0
2428047	1.974000e+00	-1.805468e+02	1.183269e+01	0	0
2430000	1.974000e+00	-1.840877e+02	-3.347641e+00	0	0
2431953	1.974000e+00	-1.697666e+02	1.308448e+00	0	0
2433906	1.974000e+00	-1.727224e+02	-7.835400e+00	0	0
2435859	1.974000e+00	-1.846652e+02	-1.303761e+01	0	0
2437813	1.974000e+00	-1.792635e+02	1.336768e+00	0	0
2439766	1.974000e+00	-1.861737e+02	-1.351778e+00	0	0
2441719	1.974000e+00	-2.027714e+02	-1.598548e-01	0	0
2443672	1.974000e+00	-2.044072e+02	-1.828500e+00	0	0
2445625	1.974000e+00	-1.952144e+02	4.256896e+00	0	0
2447578	1.974000e+00	-1.951269e+02	8.200012e+00	0	0
2449531	1.974000e+00	-1.855464e+02	-2.451744e+00	0	0
2451484	1.974000e+00	-1.715586e+02	7.073080e-01	0	0
2453438	1.974000e+00	-1.592013e+02	-4.645921e+00	0	0
2455391	1.974000e+00	-1.557829e+02	-7.563949e+00	0	0
2457344	1.974000e+00	-1.639327e+02	6.215095e-01	0	0
2459297	1.974000e+00	-1.663727e+02	-1.024827e+00	0	0
2461250	1.974000e+00	-1.704031e+02	-3.341038e-01	0	0
2463203	1.974000e+00	-1.825299e+02	-1.453222e+00	0	0
2465156	1.974000e+00	-1.879595e+02	2.730852e+00	0	0
2467109	1.974000e+00	-1.819238e+02	5.405133e+00	0	0
2469063	1.974000e+00	-1.781017e+02	-1.888289e+00	0	0
2471016	1.974000e+00	-1.641753e+02	2.972195e-01	0	0
2472969	1.974000e+00	-1.648709e+02	-3.525039e+00	0	0
2474922	1.974000e+00	-1.625706e+02	-8.794737e+00	0	0
2476875	1.974000e+00	-1.581071e+02	-3.553943e+00	0	0
2478828	1.974000e+00	-1.566834e+02	-2.623923e-01	0	0
2480781	1.974000e+00	-1.594519e+02	-5.396890e-01	0	0
2482734	1.974000e+00	-1.683328e+02	-1.394329e+00	0	0
2484688	1.974000e+00	-1.678969e+02	3.809847e+00	0	0
2486641	1.974000e+00	-1.647484e+02	6.863881e+00	0	0
2488594	1.974000e+00	-1.657376e+02	-7.016269e-01	0	0
2490547	1.974000e+00	-1.700235e+02	9.698917e-01	0	0
2492500	1.974000e+00	-1.753528e+02	2.038206e+00	0	0
2494453	1.974000e+00	-1.894428e+02	-4.667150e+00	0	0
2496406	1.974000e+00	-1.952621e+02	-9.098277e+00	0	0
2498359	1.974000e+00	-1.876816e+02	1.429196e+00	0	0
2500313	1.974000e+00	-1.965889e+02	-1.009242e+00	0	0
2502266	1.974000e+00	-2.107221e+02	1.221141e+00	0	0
2504219	1.974000e+00	-2.145722e+02	-5.434452e-01	0	0
2506172	1.974000e+00	-2.123101e+02	8.022366e+00	0	0
2508125	1.974000e+00	-1.974225e+02	1.265676e+01	0	0
2510078	1.974000e+00	-1.764176e+02	-3.468228e+00	0	0
2512031	1.974000e+00	-1.692191e+02	1.681100e+00	0	0
2513984	1.974000e+00	-1.655039e+02	-8.000108e+00	0	0
2515938	1.974000e+00	-1.607096e+02	-1.303836e+01	0	0
2517891	1.974000e+00	-1.536144e+02	8.061885e-01	0	0
2519844	1.974000e+00	-1.645696e+02	-3.700418e+00	0	0
2521797	1.974000e+00	-1.804017e+02	-2.645691e+00	0	0
2523750	1.974000e+00	-1.765899e+02	-2.869402e+00	0	0
2525703	1.974000e+00	-1.834975e+02	4.096039e+00	0	0
2527656	1.974000e+00	-1.720130e+02	7.286360e+00	0	0
2529609	1.974000e+00	-1.553817e+02	-2.303762e+00	0	0
2531563	1.974000e+00	-1.500163e+02	5.942715e-01	0	0
2533516	1.974000e+00	-1.573293e+02	-4.410981e+00	0	0
2535469	1.973623e+00	-1.567506e+02	-6.525622e+00	0	0
2537422	1.973377e+00	-1.614488e+02	1.697244e+00	0	0
2539375	1.974000e+00	-1.767886e+02	5.266711e-01	0	0
2541328	1.974000e+00	-1.857220e+02	1.216420e+00	0	0
2543281	1.974000e+00	-1.773977e+02	-3.279617e-01	0	0
2545234	1.973623e+00	-1.773147e+02	3.376394e+00	0	0
2547188	1.973378e+00	-1.687439e+02	5.481201e+00	0	0
2549141	1.974000e+00	-1.483679e+02	-1.833634e+00	0	0
2551094	1.974000e+00	-1.521573e+02	-8.214817e-02	0	0
2553047	1.973622e+00	-1.470157e+02	-2.025725e+00	0	0
2555000	1.973378e+00	-1.149643e+02	-8.056780e+00	0	0
2556953	1.973622e+00	-6.865724e+01	-6.319554e+00	0	0
2558906	1.973378e+00	-6.205077e+01	2.573485e-01	0	0
2560859	1.974000e+00	-4.547510e+01	-6.732254e-01	0	0
2562813	1.974000e+00	-2.361430e+01	-1.497966e+00	0	0
2564766	1.973621e+00	-2.687533e+01	3.212665e+00	0	0
2566719	1.973000e+00	-9.804983e+00	5.936911e+00	0	0
2568672	1.973000e+00	-3.212206e+00	-1.783030e+00	0	0
2570625	1.973000e+00	8.387419e+00	-6.375443e-01	0	0
2572578	1.973000e+00	1.442822e+01	3.897874e-01	0	0
2574531	1.973000e+00	1.334942e+01	-5.470401e+00	0	0
2576484	1.973000e+00	2.471398e+01	-8.889496e+00	0	0
2578438	1.973000e+00	3.028532e+01	8.736178e-01	0	0
2580391	1.973381e+00	2.342633e+01	-1.174261e+00	0	0
2582344	1.973619e+00	2.970684e+01	-1.316836e-01	0	0
2584297	1.973000e+00	3.698345e+01	-2.256906e+00	0	0
2586250	1.973000e+00	4.578112e+01	6.042558e+00	0	0
2588203	1.973000e+00	4.252647e+01	1.082180e+01	0	0
2590156	1.973000e+00	3.981206e+01	-3.189355e+00	0	0
2592109	1.973000e+00	6.820322e+01	1.573676e+00	0	0
2594063	1.973000e+00	8.185562e+01	-7.985406e+00	0	0
2596016	1.973000e+00	8.530057e+01	-1.269985e+01	0	0
2597969	1.973000e+00	7.638692e+01	1.568826e+00	0	0
2599922	1.973000e+00	7.529282e+01	-1.367242e+00	0	0
2601875	1.973382e+00	7.290028e+01	-7.796031e-02	0	0
2603828	1.973617e+00	7.810797e+01	-2.301817e+00	0	0
2605781	1.973000e+00	6.081501e+01	6.167414e+00	0	0
2607734	1.973000e+00	4.884124e+01	1.091779e+01	0	0
2609688	1.973000e+00	5.719003e+01	-3.158666e+00	0	0
2611641	1.973000e+00	5.778133e+01	1.349362e+00	0	0
2613594	1.973000e+00	5.586223e+01	-7.017878e+00	0	0
2615547	1.973000e+00	2.921521e+01	-1.098499e+01	0	0
2617500	1.973000e+00	4.495836e+00	1.246665e+00	0	0
2619453	1.973000e+00	-1.652599e+01	-1.256185e+00	0	0
2621406	1.973000e+00	-5.478240e+01	-2.230186e-01	0	0
2623359	1.973000e+00	-8.419411e+01	-1.855492e+00	0	0
2625313	1.973000e+00	-8.715060e+01	4.276143e+00	0	0
2627266	1.973000e+00	-9.365701e+01	7.610010e+00	0	0
2629219	1.973000e+00	-1.160758e+02	-2.410853e+00	0	0
2631172	1.973000e+00	-1.257905e+02	5.953427e-01	0	0
2633125	1.973000e+00	-1.521017e+02	-4.575095e+00	0	0
2635078	1.973000e+00	-1.747607e+02	-1.176742e+01	0	0
2637031	1.973000e+00	-1.816844e+02	-5.013797e+00	0	0
2638984	1.973000e+00	-1.968118e+02	-6.137949e-02	0	0
2640938	1.973000e+00	-2.109509e+02	-5.661474e-01	0	0
2642891	1.973000e+00	-2.217058e+02	-1.700573e+00	0	0
2644844	1.973000e+00	-2.377494e+02	3.935155e+00	0	0
2646797	1.973000e+00	-2.278099e+02	6.992219e+00	0	0
2648750	1.973000e+00	-2.204615e+02	-2.204617e+00	0	0
2650703	1.973000e+00	-2.146883e+02	1.668934e-01	0	0
2652656	1.973000e+00	-2.084484e+02	-2.942399e+00	0	0
2654609	1.973000e+00	-2.106132e+02	-1.168274e+01	0	0
2656563	1.973000e+00	-2.165807e+02	-8.486584e+00	0	0
2658516	1.973000e+00	-2.209567e+02	6.328305e-01	0	0
2660469	1.973000e+00	-2.197300e+02	-8.417939e-01	0	0
2662422	1.973000e+00	-2.465773e+02	-1.315112e+00	0	0
2664375	1.973000e+00	-2.376839e+02	2.728875e+00	0	0
2666328	1.973000e+00	-2.393725e+02	1.563768e+01	0	0
2668281	1.973000e+00	-2.486693e+02	1.061218e+01	0	0
2670234	1.973000e+00	-2.345737e+02	-3.162239e+00	0	0
2672188	1.973000e+00	-2.247937e+02	1.919710e+00	0	0
2674141	1.973000e+00	-2.389514e+02	-9.741616e+00	0	0
2676094	1.973000e+00	-2.412110e+02	-1.518664e+01	0	0
2678047	1.973000e+00	-2.433202e+02	2.045021e+00	0	0
2680000	1.973000e+00	-2.427489e+02	-1.551362e+00	0	0
2681953	1.973000e+00	-2.554974e+02	8.839161e-02	0	0
2683906	1.973000e+00	-2.494885e+02	-2.877009e+00	0	0
2685859	1.973000e+00	-2.551608e+02	8.550681e+00	0	0
2687813	1.973000e+00	-2.552508e+02	1.447632e+01	0	0
2689766	1.973000e+00	-2.285440e+02	-3.990356e+00	0	0
2691719	1.973000e+00	-2.334551e+02	2.024211e+00	0	0
2693672	1.973000e+00	-2.365441e+02	-9.294994e+00	0	0
2695625	1.973000e+00	-2.553906e+02	-1.425234e+01	0	0
2697578	1.973000e+00	-2.631771e+02	1.855553e+00	0	0
2699531	1.973000e+00	-2.496110e+02	-1.448886e+00	0	0
2701484	1.973000e+00	-2.532270e+02	-1.549067e-01	0	0
2703438	1.973000e+00	-2.571068e+02	-2.030450e+00	0	0
2705391	1.973000e+00	-2.457126e+02	4.914203e+00	0	0
2707344	1.973000e+00	-2.502126e+02	8.398878e+00	0	0
2709297	1.973000e+00	-2.479365e+02	-2.595218e+00	0	0
2711250	1.973000e+00	-2.682680e+02	6.405564e-01	0	0
2713203	1.973000e+00	-2.997518e+02	-4.693099e+00	0	0
2715156	1.973000e+00	-3.098091e+02	-1.161060e+01	0	0
2717109	1.973000e+00	-3.209206e+02	-4.768868e+00	0	0
2719063	1.973000e+00	-3.036103e+02	-1.127735e-01	0	0
2721016	1.973000e+00	-2.519920e+02	-5.794176e-01	0	0
2722969	1.973000e+00	-1.888639e+02	-1.689766e+00	0	0
2724922	1.973000e+00	-1.054638e+02	3.816331e+00	0	0
2726875	1.973000e+00	4.648135e+00	6.625117e+00	0	0
2728828	1.973000e+00	1.488172e+02	-2.244117e+00	0	0
2730781	1.973000e+00	3.548665e+02	4.354423e-01	0	0
2732734	1.973000e+00	6.219795e+02	-4.227612e+00	0	0
2734688	1.973000e+00	8.929377e+02	-1.248943e+01	0	0
2736641	1.973000e+00	1.146693e+03	-6.686218e+00	0	0
2738594	1.973000e+00	1.430774e+03	2.508069e-01	0	0
2740547	1.973000e+00	1.693692e+03	-6.936180e-01	0	0
2742500	1.973000e+00	1.856527e+03	-1.619278e+00	0	0
2744453	1.973000e+00	1.868827e+03	3.714459e+00	0	0
2746406	1.973000e+00	1.740539e+03	1.074712e+01	0	0
2748359	1.973000e+00	1.433013e+03	3.035582e+00	0	0
2750313	1.973000e+00	1.101581e+03	-1.665672e+00	0	0
2752266	1.973000e+00	8.894543e+02	1.037002e+00	0	0
2754219	1.973000e+00	6.403587e+02	-7.551964e+00	0	0
2756172	1.973000e+00	4.075539e+02	-1.150702e+01	0	0
2758125	1.973000e+00	3.507619e+01	1.362570e+00	0	0
2760078	1.973000e+00	-2.924298e+02	-1.380585e+00	0	0
2762031	1.973000e+00	-3.840165e+02	-5.615048e-03	0	0
2763984	1.973000e+00	-4.041743e+02	-2.765062e+00	0	0
2765938	1.973000e+00	-3.587965e+02	8.089513e+00	0	0
2767891	1.973000e+00	-2.985604e+02	1.335202e+01	0	0
2769844	1.973000e+00	-2.744282e+02	-3.835135e+00	0	0
2771797	1.973000e+00	-2.353411e+02	2.008442e+00	0	0
2773750	1.973000e+00	-1.917309e+02	-9.544783e+00	0	0
2775703	1.973000e+00	-1.816879e+02	-1.431308e+01	0	0
2777656	1.973000e+00	-1.737625e+02	1.894713e+00	0	0
2779609	1.973000e+00	-1.712042e+02	-1.586182e+00	0	0
2781563	1.973000e+00	-1.655480e+02	-5.202412e-01	0	0
2783516	1.973000e+00	-1.686381e+02	-2.369314e+00	0	0
2785469	1.973000e+00	-1.623966e+02	5.455361e+00	0	0
2787422	1.973000e+00	-1.637430e+02	8.972441e+00	0	0
2789375	1.973000e+00	-1.590678e+02	-2.780802e+00	0	0
2791328	1.973000e+00	-1.661566e+02	8.382865e-01	0	0
2793281	1.973000e+00	-1.768499e+02	-5.392616e+00	0	0
2795234	1.973000e+00	-1.742005e+02	-7.819048e+00	0	0
2797188	1.973000e+00	-1.590296e+02	6.455805e-01	0	0
2799141	1.973000e+00	-1.491367e+02	-1.117502e+00	0	0
2801094	1.973000e+00	-1.450806e+02	-3.863225e-01	0	0
2803047	1.973000e+00	-1.449666e+02	-1.550413e+00	0	0
2805000	1.973000e+00	-1.544981e+02	2.857213e+00	0	0
2806953	1.973000e+00	-1.616940e+02	4.866704e+00	0	0
2808906	1.973000e+00	-1.627676e+02	-1.828484e+00	0	0
2810859	1.973000e+00	-1.565329e+02	-1.149684e-01	0	0
2812813	1.973000e+00	-1.529284e+02	-2.248320e+00	0	0
2814766	1.973000e+00	-1.530587e+02	-7.712477e+00	0	0
2816719	1.973000e+00	-1.495505e+02	-5.455932e+00	0	0
2818672	1.973000e+00	-1.603007e+02	1.084448e-01	0	0
2820625	1.973000e+00	-1.597079e+02	-8.266863e-01	0	0
2822578	1.973000e+00	-1.507950e+02	-1.037407e+00	0	0
2824531	1.973000e+00	-1.355839e+02	1.128107e+00	0	0
2826484	1.973000e+00	-1.301275e+02	8.017222e+00	0	0
2828438	1.973000e+00	-1.384935e+02	5.278419e+00	0	0
2830391	1.973000e+00	-1.266191e+02	-2.137697e+00	0	0
2832344	1.973000e+00	-1.207300e+02	1.020561e+00	0	0
2834297	1.973000e+00	-1.247225e+02	-7.057218e+00	0	0
2836250	1.973000e+00	-1.364506e+02	-1.038975e+01	0	0
2838203	1.973000e+00	-1.299590e+02	1.154960e+00	0	0
2840156	1.973000e+00	-1.355977e+02	-1.362234e+00	0	0
2842109	1.973000e+00	-1.412341e+02	3.589428e-02	0	0
2844063	1.973000e+00	-1.299858e+02	-3.044671e+00	0	0
2846016	1.973000e+00	-1.280760e+02	9.262810e+00	0	0
2847969	1.973000e+00	-1.184174e+02	1.484237e+01	0	0
2849922	1.973000e+00	-9.661998e+01	-4.259835e+00	0	0
2851875	1.973000e+00	-9.516430e+01	2.478923e+00	0	0
2853828	1.973000e+00	-1.037169e+02	-1.137484e+01	0	0
2855781	1.973000e+00	-1.090330e+02	-1.671234e+01	0	0
2857734	1.973000e+00	-1.165257e+02	2.338852e+00	0	0
2859688	1.973000e+00	-1.128482e+02	-1.663428e+00	0	0
2861641	1.973000e+00	-1.136051e+02	3.458908e-02	0	0
2863594	1.973000e+00	-1.135598e+02	-2.758224e+00	0	0
2865547	1.973000e+00	-1.094657e+02	7.915154e+00	0	0
2867500	1.973000e+00	-9.400082e+01	1.260608e+01	0	0
2869453	1.973000e+00	-8.287478e+01	-3.652011e+00	0	0
2871406	1.973000e+00	-7.266522e+01	1.600157e+00	0	0
2873359	1.972596e+00	-5.996354e+01	-8.037627e+00	0	0
2875313	1.972404e+00	-5.143476e+01	-1.156343e+01	0	0
2877266	1.973000e+00	-5.746110e+01	1.356615e+00	0	0
2879219	1.973000e+00	-6.150186e+01	-1.361841e+00	0	0
2881172	1.973000e+00	-5.924040e+01	-2.123440e-01	0	0
2883125	1.973000e+00	-5.831492e+01	-2.094435e+00	0	0
2885078	1.973000e+00	-5.040004e+01	5.097336e+00	0	0
2887031	1.973000e+00	-4.220332e+01	8.203496e+00	0	0
2888984	1.973000e+00	-4.637701e+01	-2.685426e+00	0	0
2890938	1.972595e+00	-3.002606e+01	8.191544e-01	0	0
2892891	1.972405e+00	-1.488496e+01	-5.710645e+00	0	0
2894844	1.973000e+00	-2.734621e+01	-1.302171e+01	0	0
2896797	1.973000e+00	-1.325029e+01	-4.621325e+00	0	0
2898750	1.973000e+00	-2.440744e+01	-1.992818e-01	0	0
2900703	1.973000e+00	-3.032791e+01	-5.317298e-01	0	0
2902656	1.973000e+00	-2.070207e+01	-2.001847e+00	0	0
2904609	1.972594e+00	-2.934080e+00	5.109238e+00	0	0
2906563	1.972406e+00	8.111413e+00	1.134786e+01	0	0
2908516	1.973000e+00	-4.986080e+00	1.272742e+00	0	0
2910469	1.973000e+00	1.836901e+01	-1.434444e+00	0	0
2912422	1.973000e+00	3.015055e+01	1.202468e+00	0	0
2914375	1.973000e+00	2.503910e+01	-8.871176e+00	0	0
2916328	1.973000e+00	3.592391e+01	-1.316247e+01	0	0
2918281	1.973000e+00	3.679501e+01	1.430691e+00	0	0
2920234	1.973000e+00	4.239338e+01	-1.479443e+00	0	0
2922188	1.972592e+00	3.776231e+01	7.283130e-02	0	0
2924141	1.972000e+00	3.760243e+01	-3.164635e+00	0	0
2926094	1.972000e+00	2.875656e+01	9.718907e+00	0	0
2928047	1.972000e+00	5.662997e+01	1.513548e+01	0	0
2930000	1.972000e+00	7.388603e+01	-4.374671e+00	0	0
2931953	1.972000e+00	6.642606e+01	2.551729e+00	0	0
2933906	1.972408e+00	8.783790e+01	-1.173009e+01	0	0
2935859	1.972592e+00	9.312887e+01	-1.680971e+01	0	0
2937813	1.972000e+00	1.044353e+02	2.368958e+00	0	0
2939766	1.972000e+00	1.177569e+02	-1.710263e+00	0	0
2941719	1.972000e+00	1.394203e+02	9.968493e-02	0	0
2943672	1.972000e+00	1.478417e+02	-3.063645e+00	0	0
2945625	1.972000e+00	1.567904e+02	9.198996e+00	0	0
2947578	1.972000e+00	1.617439e+02	1.421392e+01	0	0
2949531	1.972000e+00	1.764938e+02	-4.083792e+00	0	0
2951484	1.972409e+00	2.071557e+02	2.012532e+00	0	0
2953438	1.972590e+00	2.173691e+02	-9.603037e+00	0	0
2955391	1.972000e+00	2.321788e+02	-1.353690e+01	0	0
2957344	1.972000e+00	2.488208e+02	1.730880e+00	0	0
2959297	1.972000e+00	2.584410e+02	-1.479549e+00	0	0
2961250	1.972000e+00	2.617390e+02	-2.074389e-01	0	0
2963203	1.972000e+00	2.621048e+02	-2.088000e+00	0	0
2965156	1.972000e+00	2.870738e+02	4.980598e+00	0	0
2967109	1.972000e+00	3.182492e+02	7.744848e+00	0	0
2969063	1.972000e+00	3.354252e+02	-2.465037e+00	0	0
2971016	1.972000e+00	3.423722e+02	5.996895e-01	0	0
2972969	1.972000e+00	3.559081e+02	-4.401426e+00	0	0
2974922	1.972000e+00	3.538559e+02	-1.128564e+01	0	0
2976875	1.972000e+00	3.595083e+02	-5.404241e+00	0	0
2978828	1.972000e+00	3.749163e+02	-2.419669e-03	0	0
2980781	1.972000e+00	3.777619e+02	-7.021367e-01	0	0
2982734	1.972412e+00	3.881638e+02	-1.608487e+00	0	0
2984688	1.972588e+00	3.991572e+02	3.300964e+00	0	0
2986641	1.972000e+00	4.258105e+02	5.043250e+00	0	0
2988594	1.972000e+00	4.403640e+02	-1.904650e+00	0	0
2990547	1.972000e+00	4.492262e+02	-8.073166e-01	0	0
2992500	1.972000e+00	4.635925e+02	6.629530e-01	0	0
2994453	1.972000e+00	4.730595e+02	-7.221647e+00	0	0
2996406	1.972000e+00	4.791895e+02	-1.028475e+01	0	0
2998359	1.972000e+00	4.808271e+02	1.141847e+00	0	0
3000313	1.972000e+00	4.813486e+02	-5.444746e-01	0	0
3002266	1.972000e+00	4.715489e+02	-8.228467e-01	0	0
3004219	1.972000e+00	4.704003e+02	1.757848e+00	0	0
3006172	1.972000e+00	4.606028e+02	1.726750e+01	0	0
3008125	1.972000e+00	4.411004e+02	1.266355e+01	0	0
3010078	1.972000e+00	4.326964e+02	-5.772732e+00	0	0
3012031	1.972000e+00	4.267223e+02	8.249779e-01	0	0
3013984	1.972000e+00	4.086278e+02	-1.512851e+01	0	0
3015938	1.972000e+00	3.797400e+02	-2.043899e+01	0	0
3017891	1.972000e+00	3.493739e+02	7.879528e-01	0	0
3019844	1.972000e+00	3.030617e+02	-3.130733e+00	0	0
3021797	1.972000e+00	2.644438e+02	-2.644023e-01	0	0
3023750	1.972000e+00	2.341246e+02	-3.241355e+00	0	0
3025703	1.972000e+00	2.006369e+02	1.020735e+01	0	0
3027656	1.972000e+00	1.849873e+02	1.534670e+01	0	0
3029609	1.972000e+00	1.669666e+02	-4.388756e+00	0	0
3031563	1.972000e+00	1.415200e+02	2.246826e+00	0	0
3033516	1.972000e+00	1.152170e+02	-1.043857e+01	0	0
3035469	1.972000e+00	8.942752e+01	-1.481130e+01	0	0
3037422	1.972000e+00	6.312362e+01	2.019142e+00	0	0
3039375	1.972000e+00	3.659320e+01	-2.101788e-03	0	0
3041328	1.972000e+00	1.169686e+01	1.900898e+00	0	0
3043281	1.972000e+00	2.152132e+00	-2.241202e-01	0	0
3045234	1.972000e+00	-3.746698e+00	8.962912e+00	0	0
3047188	1.972000e+00	-1.968035e+01	1.220064e+01	0	0
3049141	1.972000e+00	-2.335072e+01	-1.231865e+00	0	0
3051094	1.972000e+00	-3.001310e+01	2.776194e+00	0	0
3053047	1.972000e+00	-4.342330e+01	-4.822447e+00	0	0
3055000	1.972000e+00	-5.598513e+01	-1.642516e+01	0	0
3056953	1.972000e+00	-7.020852e+01	-7.416234e+00	0	0
3058906	1.972000e+00	-9.073641e+01	1.669857e+00	0	0
3060859	1.972000e+00	-1.008478e+02	2.970886e-01	0	0
3062813	1.972000e+00	-1.095787e+02	-1.449812e+00	0	0
3064766	1.972000e+00	-1.157477e+02	7.034230e+00	0	0
3066719	1.972000e+00	-1.157800e+02	1.005175e+01	0	0
3068672	1.972000e+00	-1.347390e+02	-2.546238e+00	0	0
3070625	1.972000e+00	-1.335947e+02	9.936066e-01	0	0
3072578	1.972000e+00	-1.180905e+02	-4.411460e+00	0	0
3074531	1.972000e+00	-1.271691e+02	-1.603262e+01	0	0
3076484	1.972000e+00	-1.223826e+02	-1.078281e+01	0	0
3078438	1.972000e+00	-1.200323e+02	3.124211e-01	0	0
3080391	1.972000e+00	-1.175474e+02	-6.643988e-01	0	0
3082344	1.972000e+00	-1.188930e+02	2.658160e-01	0	0
3084297	1.972000e+00	-1.198092e+02	-1.984903e+00	0	0
3086250	1.972000e+00	-1.166900e+02	1.112764e+01	0	0
3088203	1.972000e+00	-1.224063e+02	1.463589e+01	0	0
3090156	1.972000e+00	-1.093541e+02	-3.798662e+00	0	0
3092109	1.972000e+00	-1.048954e+02	3.251646e+00	0	0
3094063	1.972000e+00	-1.128828e+02	-1.248074e+01	0	0
3096016	1.972000e+00	-1.052524e+02	-1.907087e+01	0	0
3097969	1.972000e+00	-1.160310e+02	1.258867e+00	0	0
3099922	1.972000e+00	-1.302771e+02	-9.622653e-01	0	0
3101875	1.972000e+00	-1.201688e+02	7.755677e-01	0	0
3103828	1.972000e+00	-1.221121e+02	-3.391761e+00	0	0
3105781	1.972000e+00	-1.388805e+02	1.364682e+01	0	0
3107734	1.972000e+00	-1.498749e+02	1.964155e+01	0	0
3109688	1.972000e+00	-1.440872e+02	-4.832785e+00	0	0
3111641	1.972000e+00	-1.361047e+02	3.908741e+00	0	0
3113594	1.972000e+00	-1.134539e+02	-1.409391e+01	0	0
3115547	1.972000e+00	-1.169819e+02	-1.930429e+01	0	0
3117500	1.972000e+00	-1.260452e+02	3.525359e+00	0	0
3119453	1.972000e+00	-1.334241e+02	-1.382708e+00	0	0
3121406	1.972000e+00	-1.469033e+02	6.882447e-01	0	0
3123359	1.972000e+00	-1.330174e+02	-2.721736e+00	0	0
3125313	1.972000e+00	-1.182391e+02	1.044016e+01	0	0
3127266	1.972000e+00	-1.241732e+02	1.484266e+01	0	0
3129219	1.972000e+00	-1.169901e+02	-3.611532e+00	0	0
3131172	1.972000e+00	-1.034374e+02	2.194613e+00	0	0
3133125	1.972000e+00	-1.225031e+02	-8.036325e+00	0	0
3135078	1.972000e+00	-1.217259e+02	-1.567793e+01	0	0
3137031	1.972000e+00	-1.250219e+02	-3.179566e+00	0	0
3138984	1.972000e+00	-1.398151e+02	-1.731643e-02	0	0
3140938	1.972000e+00	-1.414588e+02	-4.790806e-02	0	0
3142891	1.972000e+00	-1.421138e+02	-1.746363e+00	0	0
3144844	1.972000e+00	-1.387753e+02	5.960577e+00	0	0
3146797	1.972000e+00	-1.375411e+02	8.546552e+00	0	0
3148750	1.972000e+00	-1.324909e+02	-2.408977e+00	0	0
3150703	1.972000e+00	-1.288954e+02	1.187975e+00	0	0
3152656	1.972000e+00	-1.243173e+02	-5.722877e+00	0	0
3154609	1.972000e+00	-1.178129e+02	-1.376133e+01	0	0
3156563	1.972000e+00	-1.175424e+02	-7.214405e+00	0	0
3158516	1.972000e+00	-1.307325e+02	-1.692905e+00	0	0
3160469	1.972000e+00	-1.372947e+02	-6.295122e-02	0	0
3162422	1.972000e+00	-1.394763e+02	-1.619267e+00	0	0
3164375	1.972000e+00	-1.398552e+02	4.447651e+00	0	0
3166328	1.972000e+00	-1.300901e+02	1.671263e+01	0	0
3168281	1.972000e+00	-1.168144e+02	8.735268e+00	0	0
3170234	1.972000e+00	-1.020174e+02	-2.830843e+00	0	0
3172188	1.972000e+00	-9.946056e+01	1.915127e+00	0	0
3174141	1.972000e+00	-9.552588e+01	-1.014832e+01	0	0
3176094	1.972000e+00	-9.787011e+01	-1.551668e+01	0	0
3178047	1.972000e+00	-1.102492e+02	-8.625316e-02	0	0
3180000	1.972000e+00	-1.210798e+02	-1.233927e+00	0	0
3181953	1.972000e+00	-1.299622e+02	3.227323e-02	0	0
3183906	1.972000e+00	-1.335845e+02	-3.473503e+00	0	0
3185859	1.972000e+00	-1.233775e+02	1.105068e+01	0	0
3187813	1.972000e+00	-1.240244e+02	1.572101e+01	0	0
3189766	1.972000e+00	-1.070272e+02	-4.653392e+00	0	0
3191719	1.972000e+00	-9.819846e+01	2.663474e+00	0	0
3193672	1.972000e+00	-1.121226e+02	-1.242836e+01	0	0
3195625	1.972000e+00	-1.146126e+02	-1.638437e+01	0	0
3197578	1.972000e+00	-1.196362e+02	2.300957e+00	0	0
3199531	1.972000e+00	-1.174288e+02	-1.725487e+00	0	0
3201484	1.972000e+00	-1.176742e+02	-6.403120e-02	0	0
3203438	1.972000e+00	-1.125598e+02	-2.687776e+00	0	0
3205391	1.972000e+00	-1.042084e+02	7.423174e+00	0	0
3207344	1.972000e+00	-9.275989e+01	1.050015e+01	0	0
3209297	1.972000e+00	-7.889297e+01	-3.279064e+00	0	0
3211250	1.972000e+00	-8.392092e+01	9.645039e-01	0	0
3213203	1.972000e+00	-7.672109e+01	-6.339009e+00	0	0
3215156	1.972000e+00	-8.724992e+01	-1.699324e+01	0	0
3217109	1.972000e+00	-1.093800e+02	-8.162849e+00	0	0
3219063	1.972000e+00	-9.695539e+01	4.269758e-01	0	0
3221016	1.972000e+00	-1.057921e+02	-7.272643e-01	0	0
3222969	1.972000e+00	-1.029644e+02	-2.207087e+00	0	0
3224922	1.972000e+00	-1.031152e+02	5.919250e+00	0	0
3226875	1.972000e+00	-1.028388e+02	8.397488e+00	0	0
3228828	1.972000e+00	-9.777917e+01	-2.706627e+00	0	0
3230781	1.972000e+00	-9.568772e+01	1.875552e-01	0	0
3232734	1.972000e+00	-9.433807e+01	-3.377076e+00	0	0
3234688	1.972000e+00	-1.008304e+02	-1.321035e+01	0	0
3236641	1.972000e+00	-1.037295e+02	-9.147626e+00	0	0
3238594	1.972000e+00	-1.135973e+02	7.336794e-01	0	0
3240547	1.972000e+00	-1.238980e+02	-1.024613e+00	0	0
3242500	1.972000e+00	-1.206251e+02	-1.345852e+00	0	0
3244453	1.972000e+00	-1.079672e+02	2.499840e+00	0	0
3246406	1.972000e+00	-1.064335e+02	1.407174e+01	0	0
3248359	1.972000e+00	-9.555985e+01	8.789083e+00	0	0
3250313	1.972000e+00	-9.803551e+01	-3.094521e+00	0	0
3252266	1.972000e+00	-8.834527e+01	1.753272e+00	0	0
3254219	1.972000e+00	-7.256549e+01	-1.013406e+01	0	0
3256172	1.972000e+00	-8.908573e+01	-1.438056e+01	0	0
3258125	1.972000e+00	-9.242455e+01	4.833328e-01	0	0
3260078	1.972000e+00	-9.978099e+01	-1.393457e+00	0	0
3262031	1.972000e+00	-1.085504e+02	2.264490e-02	0	0
3263984	1.972000e+00	-9.616594e+01	-3.431767e+00	0	0
3265938	1.972000e+00	-9.306705e+01	1.082857e+01	0	0
3267891	1.972000e+00	-8.683450e+01	1.498775e+01	0	0
3269844	1.972000e+00	-8.079905e+01	-4.553499e+00	0	0
3271797	1.972000e+00	-7.402828e+01	2.627887e+00	0	0
3273750	1.972000e+00	-7.822864e+01	-1.253630e+01	0	0
3275703	1.972000e+00	-8.731989e+01	-1.613770e+01	0	0
3277656	1.972000e+00	-8.629425e+01	2.262064e+00	0	0
3279609	1.972000e+00	-9.253334e+01	-1.748630e+00	0	0
3281563	1.972000e+00	-1.088982e+02	-2.050084e-02	0	0
3283516	1.972000e+00	-1.107332e+02	-2.925508e+00	0	0
3285469	1.972000e+00	-9.016938e+01	8.441625e+00	0	0
3287422	1.972000e+00	-8.851481e+01	1.160650e+01	0	0
3289375	1.972000e+00	-8.659655e+01	-3.619258e+00	0	0
3291328	1.972000e+00	-7.518055e+01	1.359208e+00	0	0
3293281	1.972000e+00	-5.786444e+01	-7.884019e+00	0	0
3295234	1.972000e+00	-4.350661e+01	-1.693275e+01	0	0
3297188	1.972000e+00	-3.235912e+01	-5.789021e+00	0	0
3299141	1.972000e+00	1.534279e+01	-5.095910e-02	0	0
3301094	1.972000e+00	4.619758e+01	-1.291891e-01	0	0
3303047	1.972000e+00	4.820955e+01	-1.362862e+00	0	0
3305000	1.972000e+00	6.150897e+01	7.824911e+00	0	0
3306953	1.972000e+00	6.485587e+01	1.014661e+01	0	0
3308906	1.972000e+00	7.750665e+01	-3.019680e+00	0	0
3310859	1.972000e+00	9.072712e+01	4.974458e-01	0	0
3312813	1.972000e+00	1.035345e+02	-7.758369e+00	0	0
3314766	1.972000e+00	1.107581e+02	-1.444824e+01	0	0
3316719	1.972000e+00	1.070719e+02	-4.584058e+00	0	0
3318672	1.972000e+00	1.170886e+02	-1.345084e+00	0	0
3320625	1.972000e+00	1.246207e+02	-1.566627e+00	0	0
3322578	1.972000e+00	1.249163e+02	-3.268454e+00	0	0
3324531	1.972000e+00	1.218423e+02	2.371700e+00	0	0
3326484	1.972000e+00	1.351335e+02	1.221708e+01	0	0
3328438	1.972000e+00	1.396749e+02	4.329900e+00	0	0
3330391	1.972000e+00	1.495750e+02	-3.787584e+00	0	0
3332344	1.972000e+00	1.733377e+02	4.648796e-02	0	0
3334297	1.972000e+00	1.823425e+02	-1.071545e+01	0	0
3336250	1.972000e+00	1.883892e+02	-1.518253e+01	0	0
3338203	1.972000e+00	1.962866e+02	-1.372799e+00	0	0
3340156	1.972000e+00	1.865953e+02	-1.227916e+00	0	0
3342109	1.972000e+00	1.637501e+02	2.688809e-01	0	0
3344063	1.972000e+00	1.631527e+02	-4.053356e+00	0	0
3346016	1.972000e+00	1.633447e+02	1.102209e+01	0	0
3347969	1.972000e+00	1.525969e+02	1.534380e+01	0	0
3349922	1.972000e+00	1.503410e+02	-4.966314e+00	0	0
3351875	1.972000e+00	1.507037e+02	3.019876e+00	0	0
3353828	1.972000e+00	1.365756e+02	-1.420142e+01	0	0
3355781	1.972000e+00	1.255184e+02	-1.788664e+01	0	0
3357734	1.972000e+00	1.090068e+02	2.621249e+00	0	0
3359688	1.972000e+00	8.373116e+01	-1.891771e+00	0	0
3361641	1.972000e+00	6.981194e+01	1.059877e-01	0	0
3363594	1.972000e+00	3.612950e+01	-3.375732e+00	0	0
3365547	1.972000e+00	1.315217e+01	1.038808e+01	0	0
3367500	1.972000e+00	9.026384e+00	1.384814e+01	0	0
3369453	1.972000e+00	-5.797353e+00	-4.183634e+00	0	0
3371406	1.972000e+00	-8.106675e+00	1.799815e+00	0	0
3373359	1.972000e+00	-2.978752e+01	-9.379394e+00	0	0
3375313	1.972000e+00	-4.761727e+01	-1.642201e+01	0	0
3377266	1.972000e+00	-6.074246e+01	-3.042786e+00	0	0
3379219	1.972000e+00	-8.365750e+01	-1.476618e-02	0	0
3381172	1.972000e+00	-9.929699e+01	2.382455e-01	0	0
3383125	1.972000e+00	-1.050134e+02	-1.440806e+00	0	0
3385078	1.972000e+00	-1.085217e+02	7.119313e+00	0	0
3387031	1.972000e+00	-1.177836e+02	9.294148e+00	0	0
3388984	1.972000e+00	-1.097850e+02	-1.320187e+00	0	0
3390938	1.972000e+00	-1.019155e+02	1.531769e+00	0	0
3392891	1.972000e+00	-1.030388e+02	-1.093298e+00	0	0
3394844	1.972000e+00	-1.150327e+02	-9.552639e+00	0	0
3396797	1.972000e+00	-1.184682e+02	-6.400098e+00	0	0
3398750	1.972000e+00	-1.203713e+02	2.130383e+00	0	0
3400703	1.972000e+00	-1.261360e+02	7.590884e-01	0	0
3402656	1.972000e+00	-1.271714e+02	-7.283549e-01	0	0
3404609	1.972000e+00	-1.138302e+02	7.083316e+00	0	0
3406563	1.972444e+00	-1.063499e+02	1.003998e+01	0	0
3408516	1.972556e+00	-1.165720e+02	-2.779028e-01	0	0
3410469	1.972000e+00	-1.245937e+02	3.746634e-01	0	0
3412422	1.972000e+00	-1.261693e+02	-2.478439e-01	0	0
3414375	1.972000e+00	-1.305451e+02	-1.152128e+01	0	0
3416328	1.972000e+00	-1.361924e+02	-1.496170e+01	0	0
3418281	1.972000e+00	-1.349753e+02	-2.122013e+00	0	0
3420234	1.972000e+00	-1.475847e+02	2.735020e-01	0	0
3422188	1.972000e+00	-1.484510e+02	1.126490e+00	0	0
3424141	1.972445e+00	-1.578993e+02	-3.238036e+00	0	0
3426094	1.972555e+00	-1.593541e+02	1.349807e+01	0	0
3428047	1.972000e+00	-1.432983e+02	1.747391e+01	0	0
3430000	1.972000e+00	-1.225930e+02	-4.766929e+00	0	0
3431953	1.972000e+00	-1.110907e+02	3.785833e+00	0	0
3433906	1.972445e+00	-1.204690e+02	-1.551202e+01	0	0
3435859	1.973000e+00	-1.203230e+02	-1.983368e+01	0	0
3437813	1.973000e+00	-1.315670e+02	1.884996e+00	0	0
3439766	1.973000e+00	-1.418349e+02	-2.928912e+00	0	0
3441719	1.973000e+00	-1.418385e+02	-6.138253e-02	0	0
3443672	1.973000e+00	-1.471923e+02	-3.775591e+00	0	0
3445625	1.973000e+00	-1.474644e+02	1.244498e+01	0	0
3447578	1.973000e+00	-1.357445e+02	1.616635e+01	0	0
3449531	1.973000e+00	-1.304278e+02	-4.847153e+00	0	0
3451484	1.973000e+00	-1.195978e+02	2.551033e+00	0	0
3453438	1.973000e+00	-1.251826e+02	-1.221577e+01	0	0
3455391	1.973000e+00	-1.654785e+02	-1.588145e+01	0	0
3457344	1.973000e+00	-1.948065e+02	9.830462e-01	0	0
3459297	1.973000e+00	-1.958966e+02	-1.491507e+00	0	0
3461250	1.973000e+00	-1.826818e+02	-2.341867e-01	0	0
3463203	1.973000e+00	-1.306199e+02	-2.522565e+00	0	0
3465156	1.973000e+00	-5.214352e+01	6.648729e+00	0	0
3467109	1.973000e+00	2.659674e+01	9.108976e+00	0	0
3469063	1.973000e+00	1.236264e+02	-2.331481e+00	0	0
3471016	1.973000e+00	2.535304e+02	8.418961e-01	0	0
3472969	1.973000e+00	4.556237e+02	-5.923097e+00	0	0
3474922	1.973000e+00	7.358057e+02	-1.345612e+01	0	0
3476875	1.973000e+00	1.006887e+03	-5.632146e+00	0	0
3478828	1.973000e+00	1.267067e+03	-3.697133e-02	0	0
3480781	1.973000e+00	1.563860e+03	-7.844514e-01	0	0
3482734	1.973000e+00	1.813633e+03	-1.796764e+00	0	0
3484688	1.973000e+00	1.978871e+03	3.891322e+00	0	0
3486641	1.973000e+00	1.982847e+03	7.923120e+00	0	0
3488594	1.973000e+00	1.855138e+03	6.906130e-01	0	0
3490547	1.973000e+00	1.554515e+03	-1.642090e+00	0	0
3492500	1.973000e+00	1.208984e+03	3.870755e-01	0	0
3494453	1.973000e+00	9.676301e+02	-9.426351e+00	0	0
3496406	1.973000e+00	7.347004e+02	-1.086771e+01	0	0
3498359	1.973000e+00	4.964663e+02	1.555974e+00	0	0
3500313	1.973000e+00	9.990805e+01	-1.089852e-01	0	0
3502266	1.973000e+00	-2.200983e+02	9.120516e-01	0	0
3504219	1.973000e+00	-2.961388e+02	-3.758722e+00	0	0
3506172	1.973000e+00	-2.728320e+02	1.116130e+01	0	0
3508125	1.973000e+00	-2.234604e+02	1.428273e+01	0	0
3510078	1.973000e+00	-1.798514e+02	-5.194804e+00	0	0
3512031	1.973000e+00	-1.225304e+02	2.607531e+00	0	0
3513984	1.973000e+00	-8.566439e+01	-1.519700e+01	0	0
3515938	1.973000e+00	-6.578311e+01	-1.812018e+01	0	0
3517891	1.973000e+00	-4.102467e+01	2.305604e+00	0	0
3519844	1.973000e+00	-2.516295e+01	-2.209589e+00	0	0
3521797	1.973000e+00	-2.927564e+01	-3.316592e-01	0	0
3523750	1.973000e+00	-3.286776e+01	-4.777733e+00	0	0
3525703	1.973000e+00	-4.184051e+01	1.143823e+01	0	0
3527656	1.973000e+00	-5.405387e+01	1.487168e+01	0	0
3529609	1.973000e+00	-4.920730e+01	-5.129590e+00	0	0
3531563	1.973000e+00	-3.382453e+01	2.703949e+00	0	0
3533516	1.973000e+00	-4.353934e+01	-1.284087e+01	0	0
3535469	1.973000e+00	-4.955497e+01	-1.519337e+01	0	0
3537422	1.973000e+00	-3.549959e+01	2.083605e+00	0	0
3539375	1.973453e+00	-5.849111e+01	-1.743803e+00	0	0
3541328	1.973547e+00	-6.816096e+01	-1.418818e-01	0	0
3543281	1.973453e+00	-6.471385e+01	-2.724698e+00	0	0
3545234	1.973547e+00	-8.626467e+01	7.433983e+00	0	0
3547188	1.973454e+00	-7.756220e+01	9.311522e+00	0	0
3549141	1.973546e+00	-5.949494e+01	-3.167936e+00	0	0
3551094	1.973000e+00	-5.713278e+01	5.046071e-01	0	0
3553047	1.973000e+00	-5.457939e+01	-4.650318e+00	0	0
3555000	1.973454e+00	-4.981738e+01	-1.403813e+01	0	0
3556953	1.973546e+00	-4.920247e+01	-7.532179e+00	0	0
3558906	1.973455e+00	-3.737752e+01	8.685666e-01	0	0
3560859	1.974000e+00	-3.861405e+01	-3.338421e-01	0	0
3562813	1.974000e+00	-4.417669e+01	-1.865026e+00	0	0
3564766	1.974000e+00	-2.960520e+01	6.453935e+00	0	0
3566719	1.974000e+00	-2.484428e+01	7.925819e+00	0	0
3568672	1.974000e+00	-1.434456e+01	-2.617226e+00	0	0
3570625	1.974000e+00	-9.189631e+00	1.125178e-01	0	0
3572578	1.974000e+00	-1.523516e+01	-4.292934e+00	0	0
3574531	1.974000e+00	-1.459794e+01	-1.537707e+01	0	0
3576484	1.974000e+00	-1.766922e+01	-1.002239e+01	0	0
3578438	1.974000e+00	-2.052965e+01	6.706478e-01	0	0
3580391	1.974000e+00	-1.642126e+01	-1.746652e+00	0	0
3582344	1.974000e+00	-2.289891e+01	-2.761081e-01	0	0
3584297	1.974000e+00	-2.467611e+01	-3.717715e+00	0	0
3586250	1.974000e+00	-2.499322e+01	1.068504e+01	0	0
3588203	1.974000e+00	-2.575587e+01	1.338445e+01	0	0
3590156	1.974000e+00	-1.192469e+01	-4.718855e+00	0	0
3592109	1.974000e+00	-5.988623e+00	2.613762e+00	0	0
3594063	1.974000e+00	-2.561256e+00	-1.437669e+01	0	0
3596016	1.974000e+00	1.085545e+00	-1.796025e+01	0	0
3597969	1.974000e+00	5.581203e+00	1.169644e+00	0	0
3599922	1.974000e+00	6.107313e+00	-1.836303e+00	0	0
3601875	1.974000e+00	2.630337e+00	3.601418e-02	0	0
3603828	1.974000e+00	1.928797e+00	-4.042383e+00	0	0
3605781	1.974000e+00	6.717377e-01	1.300057e+01	0	0
3607734	1.974000e+00	2.358322e+00	1.606729e+01	0	0
3609688	1.974000e+00	1.854959e+01	-5.044503e+00	0	0
3611641	1.974000e+00	3.344100e+01	3.033827e+00	0	0
3613594	1.974000e+00	3.766928e+01	-1.459070e+01	0	0
3615547	1.974000e+00	4.574296e+01	-1.693259e+01	0	0
3617500	1.974000e+00	5.987795e+01	2.453240e+00	0	0
3619453	1.974459e+00	4.988904e+01	-1.909614e+00	0	0
3621406	1.975000e+00	3.964895e+01	6.765920e-02	0	0
3623359	1.975000e+00	4.633865e+01	-3.481235e+00	0	0
3625313	1.975000e+00	4.797002e+01	1.081854e+01	0	0
3627266	1.975000e+00	5.929308e+01	1.315596e+01	0	0
3629219	1.975000e+00	6.242299e+01	-4.089856e+00	0	0
3631172	1.975000e+00	5.769680e+01	1.436515e+00	0	0
3633125	1.975000e+00	7.654680e+01	-8.546143e+00	0	0
3635078	1.975000e+00	9.514383e+01	-2.348506e+01	0	0
3637031	1.975000e+00	9.526209e+01	-1.139788e+01	0	0
3638984	1.975000e+00	9.649120e+01	9.708458e-01	0	0
3640938	1.975000e+00	8.525954e+01	-7.513322e-01	0	0
3642891	1.975000e+00	8.881952e+01	-3.104678e+00	0	0
3644844	1.975000e+00	9.799455e+01	9.967997e+00	0	0
3646797	1.975000e+00	1.092002e+02	1.199654e+01	0	0
3648750	1.975000e+00	1.198308e+02	-3.450207e+00	0	0
3650703	1.975000e+00	1.168071e+02	-2.518311e-01	0	0
3652656	1.975000e+00	1.343122e+02	-1.132136e+00	0	0
3654609	1.975000e+00	1.260119e+02	-1.452532e+01	0	0
3656563	1.975000e+00	1.091354e+02	-1.298345e+01	0	0
3658516	1.975000e+00	1.246762e+02	1.448840e+00	0	0
3660469	1.975000e+00	1.240837e+02	-1.022101e+00	0	0
3662422	1.975000e+00	1.158613e+02	-2.518317e+00	0	0
3664375	1.975000e+00	1.263274e+02	7.873333e+00	0	0
3666328	1.975000e+00	1.529055e+02	2.100527e+01	0	0
3668281	1.975000e+00	1.676389e+02	7.549986e+00	0	0
3670234	1.975000e+00	1.634745e+02	-3.029268e+00	0	0
3672188	1.975000e+00	1.760223e+02	1.994006e+00	0	0
3674141	1.975000e+00	1.888732e+02	-1.212482e+01	0	0
3676094	1.975463e+00	2.021525e+02	-1.392159e+01	0	0
3678047	1.976000e+00	2.137411e+02	1.847467e+00	0	0
3680000	1.976000e+00	2.123427e+02	-1.760360e+00	0	0
3681953	1.976000e+00	2.232352e+02	2.103132e-02	0	0
3683906	1.976000e+00	2.398485e+02	-3.498514e+00	0	0
3685859	1.976000e+00	2.433954e+02	1.093179e+01	0	0
3687813	1.976000e+00	2.552387e+02	1.314327e+01	0	0
3689766	1.976000e+00	2.832561e+02	-4.367958e+00	0	0
3691719	1.976000e+00	2.941411e+02	2.438325e+00	0	0
3693672	1.976000e+00	3.296836e+02	-1.266657e+01	0	0
3695625	1.976000e+00	3.394748e+02	-1.435055e+01	0	0
3697578	1.976000e+00	3.276334e+02	1.918798e+00	0	0
3699531	1.976000e+00	3.546817e+02	-1.788727e+00	0	0
3701484	1.976000e+00	3.673919e+02	-1.606544e-01	0	0
3703438	1.976000e+00	3.817156e+02	-2.968636e+00	0	0
3705391	1.976000e+00	4.081491e+02	8.487675e+00	0	0
3707344	1.976000e+00	4.147813e+02	1.013311e+01	0	0
3709297	1.976000e+00	4.204183e+02	-3.525808e+00	0	0
3711250	1.976000e+00	4.458074e+02	1.358076e+00	0	0
3713203	1.976000e+00	4.532556e+02	-8.561181e+00	0	0
3715156	1.976000e+00	4.584717e+02	-1.247052e+01	0	0
3717109	1.976000e+00	4.701833e+02	-1.611026e+00	0	0
3719063	1.976000e+00	4.763702e+02	-9.420130e-01	0	0
3721016	1.976466e+00	4.959189e+02	-4.497774e-01	0	0
3722969	1.976534e+00	5.116210e+02	-2.456010e+00	0	0
3724922	1.976466e+00	5.215723e+02	6.409038e+00	0	0
3726875	1.977000e+00	5.460504e+02	7.696472e+00	0	0
3728828	1.977000e+00	5.624710e+02	-3.022325e+00	0	0
3730781	1.977000e+00	5.764628e+02	1.186431e+00	0	0
3732734	1.977000e+00	5.863995e+02	-8.277401e+00	0	0
3734688	1.977000e+00	5.900098e+02	-9.934598e+00	0	0
3736641	1.977000e+00	6.053917e+02	3.467936e-01	0	0
3738594	1.977000e+00	6.015040e+02	-1.156947e+00	0	0
3740547	1.977000e+00	5.939974e+02	-6.003119e-02	0	0
3742500	1.977000e+00	5.948056e+02	-2.429081e+00	0	0
3744453	1.977000e+00	5.869768e+02	7.535349e+00	0	0
3746406	1.977000e+00	5.915967e+02	1.176500e+01	0	0
3748359	1.977000e+00	5.919810e+02	1.396087e-01	0	0
3750313	1.977000e+00	5.733625e+02	-1.540883e+00	0	0
3752266	1.977000e+00	5.608661e+02	1.501792e+00	0	0
3754219	1.977000e+00	5.361096e+02	-1.165818e+01	0	0
3756172	1.977000e+00	5.023077e+02	-1.325574e+01	0	0
3758125	1.977000e+00	4.785477e+02	1.722788e+00	0	0
3760078	1.977469e+00	4.515016e+02	-1.744503e+00	0	0
3762031	1.978000e+00	4.163969e+02	4.578489e-02	0	0
3763984	1.978000e+00	3.693076e+02	-3.648878e+00	0	0
3765938	1.978000e+00	3.410020e+02	1.166695e+01	0	0
3767891	1.978000e+00	3.111572e+02	1.368749e+01	0	0
3769844	1.978000e+00	2.910146e+02	-4.542475e+00	0	0
3771797	1.978000e+00	2.756319e+02	2.624610e+00	0	0
3773750	1.978000e+00	2.443726e+02	-1.353881e+01	0	0
3775703	1.978000e+00	2.159933e+02	-1.519233e+01	0	0
3777656	1.978000e+00	1.858812e+02	1.735914e+00	0	0
3779609	1.978000e+00	1.865180e+02	-2.089741e+00	0	0
3781563	1.978000e+00	1.568693e+02	-3.041377e-01	0	0
3783516	1.978000e+00	1.227785e+02	-3.065666e+00	0	0
3785469	1.978000e+00	1.259866e+02	8.718248e+00	0	0
3787422	1.978000e+00	1.068091e+02	1.015030e+01	0	0
3789375	1.978000e+00	9.824223e+01	-3.549436e+00	0	0
3791328	1.978000e+00	9.497151e+01	1.372679e+00	0	0
3793281	1.978000e+00	8.113921e+01	-8.580483e+00	0	0
3795234	1.978471e+00	6.581341e+01	-1.019165e+01	0	0
3797188	1.979000e+00	4.198775e+01	2.318415e-01	0	0
3799141	1.979000e+00	3.135003e+01	-1.299010e+00	0	0
3801094	1.979000e+00	2.347895e+01	-4.128671e-01	0	0
3803047	1.979000e+00	1.699663e+01	-2.262143e+00	0	0
3805000	1.979000e+00	1.886388e+01	5.422954e+00	0	0
3806953	1.979000e+00	3.300208e+01	6.343652e+00	0	0
3808906	1.979000e+00	3.319292e+01	-2.629180e+00	0	0
3810859	1.979000e+00	2.552354e+01	6.147995e-01	0	0
3812813	1.979000e+00	2.491837e+01	-6.226198e+00	0	0
3814766	1.979000e+00	1.961865e+01	-1.291703e+01	0	0
3816719	1.979000e+00	2.170926e+01	-4.938180e+00	0	0
3818672	1.979000e+00	1.616772e+01	-2.178055e-01	0	0
3820625	1.979000e+00	1.064932e+01	-6.857001e-01	0	0
3822578	1.979472e+00	8.046254e-01	-2.249695e+00	0	0
3824531	1.979527e+00	1.935640e+00	5.969241e+00	0	0
3826484	1.979473e+00	5.073070e-01	1.339309e+01	0	0
3828438	1.980000e+00	-1.099881e+01	3.401180e+00	0	0
3830391	1.980000e+00	-9.968643e-01	-2.217467e+00	0	0
3832344	1.980000e+00	5.550986e+00	1.633036e+00	0	0
3834297	1.980000e+00	2.241887e+00	-1.158490e+01	0	0
3836250	1.980000e+00	2.194169e+00	-1.470827e+01	0	0
3838203	1.980000e+00	-8.226266e+00	4.982212e-02	0	0
3840156	1.980000e+00	-2.441203e+01	-1.420405e+00	0	0
3842109	1.980000e+00	-3.073341e+01	3.920954e-02	0	0
3844063	1.980000e+00	-2.923746e+01	-3.943927e+00	0	0
3846016	1.980000e+00	-3.415356e+01	1.318647e+01	0	0
3847969	1.980000e+00	-1.900771e+01	1.511599e+01	0	0
3849922	1.980000e+00	-4.867075e+00	-4.926869e+00	0	0
3851875	1.980474e+00	1.092582e+00	3.006180e+00	0	0
3853828	1.981000e+00	9.088394e+00	-1.490032e+01	0	0
3855781	1.981000e+00	4.440806e+00	-1.623025e+01	0	0
3857734	1.981000e+00	9.569476e-01	2.340260e+00	0	0
3859688	1.981000e+00	-1.589662e+01	-1.862796e+00	0	0
3861641	1.981000e+00	-2.222785e+01	-8.620993e-02	0	0
3863594	1.981000e+00	-2.699045e+01	-2.990554e+00	0	0
3865547	1.981000e+00	-1.517081e+01	8.652740e+00	0	0
3867500	1.981000e+00	-1.311245e+01	9.829251e+00	0	0
3869453	1.981000e+00	-1.042283e+01	-3.419929e+00	0	0
3871406	1.981000e+00	7.561071e+00	1.077923e+00	0	0
3873359	1.981000e+00	2.956421e+00	-7.432359e+00	0	0
3875313	1.981000e+00	6.888135e+00	-1.198816e+01	0	0
3877266	1.981476e+00	5.592024e+00	-2.825772e+00	0	0
3879219	1.981524e+00	8.959754e+00	-6.448757e-01	0	0
3881172	1.981476e+00	1.457699e+01	-6.063267e-01	0	0
3883125	1.982000e+00	3.496271e+00	-2.118575e+00	0	0
3885078	1.982000e+00	4.005234e+00	5.012827e+00	0	0
3887031	1.982000e+00	1.364222e+01	5.719793e+00	0	0
3888984	1.982000e+00	1.021908e+01	-2.410568e+00	0	0
3890938	1.982000e+00	1.181803e+01	2.242214e-01	0	0
3892891	1.982000e+00	1.501018e+01	-4.615934e+00	0	0
3894844	1.982000e+00	2.064610e+01	-1.236374e+01	0	0
3896797	1.982000e+00	2.205736e+01	-6.363186e+00	0	0
3898750	1.982000e+00	1.089593e+01	9.595315e-02	0	0
3900703	1.982000e+00	9.693355e+00	-7.096759e-01	0	0
3902656	1.982000e+00	5.578932e+00	-2.434477e+00	0	0
3904609	1.982478e+00	-4.766810e+00	6.752461e+00	0	0
3906563	1.983000e+00	-1.264148e+01	8.323791e+00	0	0
3908516	1.983000e+00	-2.002952e+01	-8.838988e-01	0	0
3910469	1.983000e+00	-1.011652e+01	2.370532e+00	0	0
3912422	1.983000e+00	1.401271e+01	-8.311626e-01	0	0
3914375	1.983000e+00	1.919363e+01	-1.370211e+01	0	0
3916328	1.983000e+00	2.562707e+01	-1.136469e+01	0	0
3918281	1.983000e+00	2.902800e+01	2.338034e-02	0	0
3920234	1.983000e+00	8.012836e+00	-1.358354e+00	0	0
3922188	1.983000e+00	1.261940e+00	2.449294e-04	0	0
3924141	1.983000e+00	8.289850e+00	-3.804835e+00	0	0
3926094	1.983479e+00	8.089332e+00	1.267060e+01	0	0
3928047	1.984000e+00	1.555955e+01	1.432009e+01	0	0
3930000	1.984000e+00	2.829752e+01	-5.175828e+00	0	0
3931953	1.984000e+00	2.987125e+01	1.301843e+00	0	0
3933906	1.984000e+00	2.827858e+01	-1.681635e+01	0	0
3935859	1.984000e+00	3.066257e+01	-1.851877e+01	0	0
3937813	1.984000e+00	2.288788e+01	-1.122601e+00	0	0
3939766	1.984000e+00	8.701293e+00	-4.318872e+00	0	0
3941719	1.984000e+00	1.461424e+01	-1.656445e+00	0	0
3943672	1.984000e+00	1.846411e+01	-4.458643e+00	0	0
3945625	1.984000e+00	2.253130e+01	8.830874e+00	0	0
3947578	1.984000e+00	2.745616e+01	1.049728e+01	0	0
3949531	1.984000e+00	1.652712e+01	-3.771220e+00	0	0
3951484	1.984480e+00	1.853816e+01	2.047219e+00	0	0
3953438	1.985000e+00	2.484966e+01	-8.381563e+00	0	0
3955391	1.985000e+00	3.962927e+01	-9.089600e+00	0	0
3957344	1.985000e+00	2.898816e+01	1.500332e+00	0	0
3959297	1.985000e+00	1.080754e+01	-1.466228e+00	0	0
3961250	1.985000e+00	1.997336e+01	-3.005797e-01	0	0
3963203	1.985000e+00	2.109649e+01	-2.442193e+00	0	0
3965156	1.985000e+00	1.756562e+01	6.335110e+00	0	0
3967109	1.985000e+00	1.651552e+01	6.953016e+00	0	0
3969063	1.985000e+00	2.556984e+01	-2.556611e+00	0	0
3971016	1.985482e+00	3.983005e+01	-1.044188e-01	0	0
3972969	1.986000e+00	4.841252e+01	-2.774762e+00	0	0
3974922	1.986000e+00	5.009361e+01	-1.101500e+01	0	0
3976875	1.986000e+00	4.793931e+01	-7.343163e+00	0	0
3978828	1.986000e+00	3.790929e+01	4.747188e-01	0	0
3980781	1.986000e+00	3.175786e+01	-4.585300e-01	0	0
3982734	1.986000e+00	2.833160e+01	-1.575863e+00	0	0
3984688	1.986000e+00	2.858800e+01	6.036469e+00	0	0
3986641	1.986000e+00	4.363638e+01	8.717705e+00	0	0
3988594	1.986000e+00	3.777666e+01	1.272288e-01	0	0
3990547	1.986483e+00	3.638853e+01	-4.748201e-01	0	0
3992500	1.987000e+00	4.781016e+01	-3.257381e-01	0	0
3994453	1.987000e+00	4.080340e+01	-1.022558e+01	0	0
3996406	1.987000e+00	3.704462e+01	-8.908980e+00	0	0
3998359	1.987000e+00	3.423220e+01	9.178992e-01	0	0
4000313	1.987000e+00	3.494052e+01	-1.476398e+00	0	0
4002266	1.987000e+00	2.608398e+01	-8.535617e-02	0	0
4004219	1.987000e+00	2.850060e+01	-3.265366e+00	0	0
4006172	1.987000e+00	2.406207e+01	1.024546e+01	0	0
4008125	1.987000e+00	1.459786e+01	1.124268e+01	0	0
4010078	1.987484e+00	2.464560e+01	-3.980910e+00	0	0
4012031	1.988000e+00	3.104253e+01	2.241773e+00	0	0
4013984	1.988000e+00	3.072169e+01	-1.246657e+01	0	0
4015938	1.988000e+00	2.889262e+01	-1.787754e+01	0	0
4017891	1.988000e+00	2.131607e+01	-2.257451e+00	0	0
4019844	1.988000e+00	2.352201e+01	-8.885266e-01	0	0
4021797	1.988000e+00	2.626104e+01	-1.738322e-01	0	0
4023750	1.988000e+00	3.204314e+01	-3.474862e+00	0	0
4025703	1.988000e+00	2.828633e+01	1.144303e+01	0	0
4027656	1.988485e+00	1.777282e+01	1.247841e+01	0	0
4029609	1.989000e+00	3.859233e+01	-4.239999e+00	0	0
4031563	1.989000e+00	4.563688e+01	2.328243e+00	0	0
4033516	1.989000e+00	5.722329e+01	-1.235171e+01	0	0
4035469	1.989000e+00	6.926131e+01	-1.281658e+01	0	0
4037422	1.989000e+00	6.438405e+01	1.692661e+00	0	0
4039375	1.989000e+00	8.461560e+01	-1.630206e+00	0	0
4041328	1.989000e+00	1.393448e+02	-2.065066e-01	0	0
4043281	1.989000e+00	1.536577e+02	-2.576036e+00	0	0
4045234	1.989486e+00	1.562544e+02	7.039390e+00	0	0
4047188	1.990000e+00	1.881080e+02	7.608297e+00	0	0
4049141	1.990000e+00	1.908847e+02	-2.925865e+00	0	0
4051094	1.990000e+00	1.869675e+02	9.028737e-01	0	0
4053047	1.990000e+00	2.006713e+02	-6.933797e+00	0	0
4055000	1.990000e+00	1.861791e+02	-8.465020e+00	0	0
4056953	1.990000e+00	1.881719e+02	-6.040597e-01	0	0
4058906	1.990000e+00	1.938806e+02	-1.038232e+00	0	0
4060859	1.990000e+00	1.912648e+02	-5.022000e-01	0	0
4062813	1.990488e+00	2.209551e+02	-1.957524e+00	0	0
4064766	1.991000e+00	2.285624e+02	4.365491e+00	0	0
4066719	1.991000e+00	2.445646e+02	4.673207e+00	0	0
4068672	1.991000e+00	2.662572e+02	-2.078427e+00	0	0
4070625	1.991000e+00	2.786035e+02	-1.573234e-01	0	0
4072578	1.991000e+00	2.860380e+02	-2.902869e+00	0	0
4074531	1.991000e+00	2.900258e+02	-9.387069e+00	0	0
4076484	1.991000e+00	2.985107e+02	-5.686046e+00	0	0
4078438	1.991000e+00	2.902882e+02	7.812390e-02	0	0
4080391	1.991489e+00	2.898662e+02	-8.149241e-01	0	0
4082344	1.992000e+00	2.795586e+02	-1.791926e+00	0	0
4084297	1.992000e+00	2.911276e+02	4.309893e+00	0	0
4086250	1.992000e+00	3.077407e+02	1.227001e+01	0	0
4088203	1.992000e+00	2.862356e+02	4.488201e+00	0	0
4090156	1.992000e+00	2.866619e+02	-2.318395e+00	0	0
4092109	1.992000e+00	2.907239e+02	1.262904e+00	0	0
4094063	1.992000e+00	2.913497e+02	-9.394053e+00	0	0
4096016	1.992490e+00	2.736799e+02	-9.694533e+00	0	0
4097969	1.993000e+00	2.471615e+02	1.075626e+00	0	0
4099922	1.993000e+00	2.273465e+02	-1.473218e+00	0	0
4101875	1.993000e+00	2.039748e+02	-1.239568e-01	0	0
4103828	1.993000e+00	1.677897e+02	-2.969161e+00	0	0
4105781	1.993000e+00	1.433812e+02	9.051344e+00	0	0
4107734	1.993000e+00	1.266032e+02	9.643153e+00	0	0
4109688	1.993000e+00	1.037147e+02	-3.512902e+00	0	0
4111641	1.993000e+00	9.956879e+01	1.719224e+00	0	0
4113594	1.993491e+00	8.815343e+01	-1.012586e+01	0	0
4115547	1.994000e+00	7.214156e+01	-1.029721e+01	0	0
4117500	1.994000e+00	4.713727e+01	1.191129e+00	0	0
4119453	1.994000e+00	3.757750e+01	-1.427782e+00	0	0
4121406	1.994000e+00	4.971224e+01	-3.872377e-01	0	0
4123359	1.994000e+00	2.959381e+01	-1.927247e+00	0	0
4125313	1.994492e+00	1.514308e+01	4.214086e+00	0	0
4127266	1.995000e+00	2.344147e+01	4.445401e+00	0	0
4129219	1.995000e+00	2.324324e+01	-2.099788e+00	0	0
4131172	1.995000e+00	2.889383e+01	1.834598e-01	0	0
4133125	1.995000e+00	2.442923e+01	-4.185513e+00	0	0
4135078	1.995000e+00	2.563641e+01	-4.203333e+00	0	0
4137031	1.995000e+00	1.385322e+01	-8.874870e-02	0	0
4138984	1.995000e+00	-1.178673e+00	-1.048040e+00	0	0
4140938	1.995000e+00	-1.213110e+01	-5.905523e-01	0	0
4142891	1.995493e+00	-2.466431e+01	-1.457797e+00	0	0
4144844	1.996000e+00	-2.061435e+01	2.162317e+00	0	0
4146797	1.996000e+00	-2.492610e+01	2.324375e+00	0	0
4148750	1.996000e+00	-1.554600e+01	-1.675278e+00	0	0
4150703	1.996000e+00	-2.699154e+01	1.815307e-01	0	0
4152656	1.996000e+00	-3.221873e+01	-4.675640e+00	0	0
4154609	1.996000e+00	-1.835631e+01	-4.737536e+00	0	0
4156563	1.996494e+00	-2.298644e+01	4.271020e-02	0	0
4158516	1.997000e+00	-2.398763e+01	-1.113942e+00	0	0
4160469	1.997000e+00	-2.140703e+01	-4.209091e-01	0	0
4162422	1.997000e+00	-2.132709e+01	-2.032702e+00	0	0
4164375	1.997000e+00	-3.850936e+01	5.367008e+00	0	0
4166328	1.997000e+00	-4.311991e+01	1.638860e+01	0	0
4168281	1.997000e+00	-2.088327e+01	6.832658e+00	0	0
4170234	1.997494e+00	-1.356241e+01	-2.959910e+00	0	0
4172188	1.998000e+00	-1.285734e+01	2.155465e+00	0	0
4174141	1.998000e+00	-2.201578e+01	-1.292339e+01	0	0
4176094	1.998000e+00	-2.796436e+01	-1.307677e+01	0	0
4178047	1.998000e+00	-1.123984e+01	1.846474e+00	0	0
4180000	1.998000e+00	-2.435561e+01	-1.712668e+00	0	0
4181953	1.998000e+00	-3.274543e+01	2.137364e-01	0	0
4183906	1.998495e+00	-2.315817e+01	-3.929110e+00	0	0
4185859	1.999000e+00	-2.416338e+01	1.369067e+01	0	0
4187813	1.999000e+00	-1.893666e+01	1.422642e+01	0	0
4189766	1.999000e+00	-5.219234e+00	-4.710421e+00	0	0
4191719	1.999000e+00	-4.327309e-02	2.980096e+00	0	0
4193672	1.999000e+00	-1.732609e+01	-1.480250e+01	0	0
4195625	1.999000e+00	-5.577158e+01	-1.476999e+01	0	0
4197578	1.999496e+00	-9.343222e+01	2.193731e+00	0	0
4199531	2.000000e+00	-1.039882e+02	-1.722936e+00	0	0
4201484	2.000000e+00	-9.054488e+01	-5.017170e-02	0	0
4203438	2.000000e+00	-5.863642e+01	-2.821722e+00	0	0
4205391	2.000000e+00	1.748621e+00	8.512411e+00	0	0
4207344	2.000000e+00	8.600914e+01	8.731334e+00	0	0
4209297	2.000000e+00	1.778018e+02	-3.108301e+00	0	0
4211250	2.000497e+00	2.789122e+02	9.640882e-01	0	0
4213203	2.001000e+00	4.200542e+02	-7.031885e+00	0	0
4215156	2.001000e+00	6.610311e+02	-1.540166e+01	0	0
4217109	2.001000e+00	9.317389e+02	-6.032432e+00	0	0
4219063	2.001000e+00	1.192279e+03	4.922555e-01	0	0
4221016	2.001000e+00	1.466069e+03	-2.701624e-01	0	0
4222969	2.001000e+00	1.715842e+03	-1.981467e+00	0	0
4224922	2.001498e+00	1.928530e+03	7.060423e+00	0	0
4226875	2.002000e+00	1.985007e+03	7.144911e+00	0	0
4228828	2.002000e+00	1.907589e+03	-2.867180e+00	0	0
4230781	2.002000e+00	1.722144e+03	1.334751e+00	0	0
4232734	2.002000e+00	1.367520e+03	-8.932879e+00	0	0
4234688	2.002000e+00	1.076971e+03	-1.234814e+01	0	0
4236641	2.002000e+00	8.963701e+02	-1.803761e+00	0	0
4238594	2.002499e+00	7.111762e+02	-7.840056e-01	0	0
4240547	2.003000e+00	4.268768e+02	-3.209552e-01	0	0
4242500	2.003000e+00	6.265827e+01	-2.581778e+00	0	0
4244453	2.003000e+00	-1.222373e+02	8.322433e+00	0	0
4246406	2.003000e+00	-1.449356e+02	2.025826e+01	0	0
4248359	2.003000e+00	-1.164392e+02	6.931296e+00	0	0
4250313	2.003500e+00	-8.143558e+01	-2.929010e+00	0	0
4252266	2.004000e+00	-5.129658e+01	2.230672e+00	0	0
4254219	2.004000e+00	-1.079348e+01	-1.317276e+01	0	0
4256172	2.004000e+00	1.737485e+01	-1.306209e+01	0	0
4258125	2.004000e+00	5.494783e+01	1.886561e+00	0	0
4260078	2.004000e+00	6.305701e+01	-1.650850e+00	0	0
4262031	2.004000e+00	5.461545e+01	1.193641e-01	0	0
4263984	2.004500e+00	6.375666e+01	-3.432423e+00	0	0
4265938	2.005000e+00	6.201894e+01	1.124186e+01	0	0
4267891	2.005000e+00	7.089747e+01	1.122556e+01	0	0
4269844	2.005000e+00	7.684767e+01	-4.430234e+00	0	0
4271797	2.005000e+00	6.480640e+01	1.594205e+00	0	0
4273750	2.005000e+00	4.955048e+01	-1.213447e+01	0	0
4275703	2.005501e+00	4.548113e+01	-1.186456e+01	0	0
4277656	2.006000e+00	4.870599e+01	9.082553e-01	0	0
4279609	2.006000e+00	4.081965e+01	-1.904214e+00	0	0
4281563	2.006000e+00	4.606114e+01	-6.236876e-01	0	0
4283516	2.006000e+00	5.048712e+01	-2.174096e+00	0	0
4285469	2.006000e+00	5.388970e+01	4.713025e+00	0	0
4287422	2.006502e+00	5.243645e+01	4.788358e+00	0	0
4289375	2.007000e+00	5.643810e+01	-2.110444e+00	0	0
4291328	2.007000e+00	7.139993e+01	2.724699e-01	0	0
4293281	2.007000e+00	6.308938e+01	-4.166701e+00	0	0
4295234	2.007000e+00	6.255210e+01	-3.433419e+00	0	0
4297188	2.007000e+00	6.620718e+01	1.092417e+00	0	0
4299141	2.007503e+00	5.915657e+01	6.642056e-02	0	0
4301094	2.008000e+00	5.895861e+01	4.033324e-01	0	0
4303047	2.008000e+00	6.517909e+01	-9.352064e-01	0	0
4305000	2.008000e+00	6.889443e+01	2.463122e+00	0	0
4306953	2.008000e+00	6.687550e+01	2.354000e+00	0	0
4308906	2.008000e+00	7.471404e+01	-1.446011e+00	0	0
4310859	2.008503e+00	7.641781e+01	-3.876859e-01	0	0
4312813	2.009000e+00	7.785270e+01	-1.802712e+00	0	0
4314766	2.009000e+00	7.592470e+01	-5.394733e+00	0	0
4316719	2.009000e+00	7.528661e+01	-3.360383e+00	0	0
4318672	2.009000e+00	7.576095e+01	-2.592308e-01	0	0
4320625	2.009000e+00	6.613915e+01	-6.393944e-01	0	0
4322578	2.009504e+00	7.028687e+01	-1.717592e+00	0	0
4324531	2.010000e+00	7.573923e+01	9.852522e-01	0	0
4326484	2.010000e+00	7.046658e+01	2.357298e+00	0	0
4328438	2.010000e+00	8.097094e+01	-5.372318e-01	0	0
4330391	2.010000e+00	9.800163e+01	-1.087593e+00	0	0
4332344	2.010000e+00	9.791521e+01	6.297342e-01	0	0
4334297	2.010505e+00	1.005006e+02	-7.187562e+00	0	0
4336250	2.011000e+00	9.837671e+01	-7.181057e+00	0	0
4338203	2.011000e+00	9.509399e+01	1.150910e+00	0	0
4340156	2.011000e+00	9.120558e+01	4.033049e-01	0	0
4342109	2.011000e+00	8.937919e+01	1.796361e+00	0	0
4344063	2.011506e+00	9.281356e+01	-2.573856e+00	0	0
4346016	2.012000e+00	1.055704e+02	1.051016e+01	0	0
4347969	2.012000e+00	1.235162e+02	1.060368e+01	0	0
4349922	2.012000e+00	1.372706e+02	-3.809703e+00	0	0
4351875	2.012000e+00	1.482316e+02	2.575449e+00	0	0
4353828	2.012506e+00	1.488143e+02	-1.353064e+01	0	0
4355781	2.013000e+00	1.486044e+02	-1.384567e+01	0	0
4357734	2.013000e+00	1.470170e+02	5.886571e-01	0	0
4359688	2.013000e+00	1.354992e+02	-1.979870e+00	0	0
4361641	2.013000e+00	1.291130e+02	1.550593e-01	0	0
4363594	2.013000e+00	1.353542e+02	-3.036798e+00	0	0
4365547	2.013507e+00	1.507599e+02	1.001340e+01	0	0
4367500	2.014000e+00	1.585151e+02	9.856304e+00	0	0
4369453	2.014000e+00	1.568897e+02	-3.462420e+00	0	0
4371406	2.014000e+00	1.648260e+02	1.854687e+00	0	0
4373359	2.014000e+00	1.585047e+02	-1.020021e+01	0	0
4375313	2.014000e+00	1.473949e+02	-9.715226e+00	0	0
4377266	2.014508e+00	1.621779e+02	1.248148e+00	0	0
4379219	2.015000e+00	1.749911e+02	-1.332063e+00	0	0
4381172	2.015000e+00	1.754861e+02	-1.386881e-01	0	0
4383125	2.015000e+00	1.788498e+02	-2.325189e+00	0	0
4385078	2.015000e+00	1.835412e+02	6.860904e+00	0	0
4387031	2.015508e+00	1.976249e+02	6.725652e+00	0	0
4388984	2.016000e+00	2.148252e+02	-2.650872e+00	0	0
4390938	2.016000e+00	2.296248e+02	1.173681e+00	0	0
4392891	2.016000e+00	2.414039e+02	-7.705654e+00	0	0
4394844	2.016000e+00	2.511438e+02	-7.313587e+00	0	0
4396797	2.016000e+00	2.667516e+02	7.393301e-01	0	0
4398750	2.016509e+00	2.633669e+02	-1.136002e+00	0	0
4400703	2.017000e+00	2.585806e+02	-3.422680e-01	0	0
4402656	2.017000e+00	2.529863e+02	-1.634728e+00	0	0
4404609	2.017000e+00	2.440324e+02	4.063655e+00	0	0
4406563	2.017000e+00	2.652604e+02	1.165035e+01	0	0
4408516	2.017510e+00	2.773877e+02	4.409752e+00	0	0
4410469	2.018000e+00	2.774629e+02	-2.089354e+00	0	0
4412422	2.018000e+00	2.878412e+02	1.097032e+00	0	0
4414375	2.018000e+00	2.893967e+02	-8.019789e+00	0	0
4416328	2.018000e+00	2.997153e+02	-9.081196e+00	0	0
4418281	2.018510e+00	3.025820e+02	-2.456193e-01	0	0
4420234	2.019000e+00	3.056862e+02	-1.007787e+00	0	0
