time	gsr	ecg	emg_trapezius	emg_corrugator	emg_zygomaticus
234	2.210000e+00	-1.200369e+02	1.446819e+00	0	0
2188	2.210000e+00	-1.263263e+02	3.596888e+00	0	0
4141	2.210000e+00	-1.241772e+02	3.919802e+00	0	0
6094	2.209892e+00	-1.265026e+02	2.321102e+00	0	0
8047	2.209108e+00	-1.179044e+02	5.075352e-01	0	0
10000	2.209892e+00	-1.128987e+02	5.908619e-01	0	0
11953	2.209000e+00	-1.197293e+02	5.586993e-01	0	0
13906	2.209108e+00	-1.239525e+02	4.993787e-01	0	0
15859	2.209892e+00	-1.188973e+02	-7.746547e-01	0	0
17813	2.209000e+00	-1.303766e+02	-2.538530e+00	0	0
19766	2.209000e+00	-1.378337e+02	-2.799260e+00	0	0
21719	2.209000e+00	-1.338276e+02	-1.645576e+00	0	0
23672	2.209000e+00	-1.411315e+02	5.151779e-01	0	0
25625	2.209000e+00	-1.319329e+02	5.302146e-01	0	0
27578	2.209000e+00	-1.140087e+02	5.649098e-01	0	0
29531	2.209000e+00	-9.388880e+01	5.288726e-01	0	0
31484	2.209000e+00	-8.625333e+01	6.408388e-01	0	0
33438	2.209000e+00	-9.093278e+01	2.044581e+00	0	0
35391	2.209000e+00	-8.337027e+01	3.105061e+00	0	0
37344	2.209000e+00	-5.692895e+01	3.628952e+00	0	0
39297	2.209000e+00	-2.186630e+01	3.594197e+00	0	0
41250	2.209000e+00	-9.053278e+00	3.007268e+00	0	0
43203	2.209000e+00	1.851883e+00	1.822945e+00	0	0
45156	2.209000e+00	1.792216e+01	4.872445e-01	0	0
47109	2.209000e+00	3.150203e+01	5.715348e-01	0	0
49063	2.209000e+00	2.040530e+01	5.514743e-01	0	0
51016	2.209000e+00	2.820524e+01	5.477528e-01	0	0
52969	2.209000e+00	3.459029e+01	5.830916e-01	0	0
54922	2.209000e+00	3.648188e+01	4.436914e-01	0	0
56875	2.209000e+00	5.012008e+01	-1.187059e+00	0	0
58828	2.209000e+00	6.358480e+01	-1.902988e+00	0	0
60781	2.209000e+00	6.928252e+01	-1.470242e+00	0	0
62734	2.209000e+00	7.485218e+01	-1.233303e-01	0	0
64688	2.209000e+00	8.425796e+01	5.825805e-01	0	0
66641	2.209000e+00	9.402609e+01	5.457764e-01	0	0
68594	2.209000e+00	9.873213e+01	5.610863e-01	0	0
70547	2.209000e+00	1.019251e+02	5.366203e-01	0	0
72500	2.209000e+00	1.102473e+02	6.205080e-01	0	0
74453	2.209000e+00	1.191883e+02	1.753086e+00	0	0
76406	2.209000e+00	1.185231e+02	2.654604e+00	0	0
78359	2.209000e+00	1.136405e+02	2.373385e+00	0	0
80313	2.209000e+00	1.127682e+02	1.225113e+00	0	0
82266	2.209000e+00	1.032238e+02	5.247130e-01	0	0
84219	2.209000e+00	1.151378e+02	5.617348e-01	0	0
86172	2.209000e+00	1.169363e+02	5.538454e-01	0	0
88125	2.208890e+00	1.126697e+02	5.480742e-01	0	0
90078	2.208000e+00	1.147630e+02	5.785884e-01	0	0
92031	2.208000e+00	1.178429e+02	3.671159e-01	0	0
93984	2.208110e+00	1.057968e+02	-1.146099e+00	0	0
95938	2.208889e+00	9.122308e+01	-1.285123e+00	0	0
97891	2.208000e+00	6.622199e+01	-4.254893e-01	0	0
99844	2.208111e+00	2.409353e+01	6.060082e-01	0	0
101797	2.208889e+00	1.135852e+01	5.395219e-01	0	0
103750	2.208000e+00	-2.282910e+01	5.566300e-01	0	0
105703	2.208000e+00	-3.974722e+01	5.538667e-01	0	0
107656	2.208000e+00	-4.327908e+01	5.469438e-01	0	0
109609	2.208000e+00	-5.336083e+01	5.771915e-01	0	0
111563	2.208000e+00	-7.007307e+01	1.193542e+00	0	0
113516	2.208000e+00	-8.454398e+01	2.079814e+00	0	0
115469	2.208000e+00	-1.062051e+02	2.043631e+00	0	0
117422	2.208000e+00	-1.257746e+02	1.543187e+00	0	0
119375	2.208000e+00	-1.333287e+02	7.363813e-01	0	0
121328	2.208000e+00	-1.447423e+02	5.486341e-01	0	0
123281	2.208000e+00	-1.498052e+02	5.522357e-01	0	0
125234	2.208000e+00	-1.529894e+02	5.509626e-01	0	0
127188	2.208000e+00	-1.442073e+02	5.509826e-01	0	0
129141	2.208000e+00	-1.482825e+02	5.506426e-01	0	0
131094	2.208000e+00	-1.448217e+02	5.503859e-01	0	0
133047	2.208000e+00	-1.468881e+02	5.500934e-01	0	0
135000	2.208000e+00	-1.634693e+02	5.497975e-01	0	0
136953	2.208000e+00	-1.733234e+02	5.494899e-01	0	0
138906	2.208000e+00	-1.788201e+02	5.491728e-01	0	0
140859	2.208000e+00	-1.855154e+02	5.488454e-01	0	0
142813	2.208000e+00	-1.879398e+02	5.485078e-01	0	0
144766	2.208000e+00	-1.819246e+02	5.481602e-01	0	0
146719	2.208000e+00	-1.768857e+02	5.478023e-01	0	0
148672	2.208000e+00	-1.665743e+02	5.474340e-01	0	0
150625	2.208000e+00	-1.636953e+02	5.470554e-01	0	0
152578	2.208000e+00	-1.685869e+02	5.466663e-01	0	0
154531	2.208000e+00	-1.848409e+02	5.462667e-01	0	0
156484	2.208000e+00	-1.888990e+02	5.458565e-01	0	0
158438	2.208000e+00	-1.897600e+02	5.454354e-01	0	0
160391	2.208000e+00	-2.057123e+02	5.450039e-01	0	0
162344	2.208000e+00	-1.957241e+02	5.445615e-01	0	0
164297	2.208000e+00	-2.051562e+02	5.441084e-01	0	0
166250	2.208000e+00	-1.991698e+02	5.436442e-01	0	0
168203	2.208000e+00	-1.946129e+02	5.431693e-01	0	0
170156	2.208000e+00	-1.872269e+02	5.426824e-01	0	0
172109	2.208000e+00	-1.834331e+02	5.421882e-01	0	0
174063	2.207887e+00	-1.888370e+02	5.416684e-01	0	0
176016	2.207113e+00	-1.830515e+02	5.411903e-01	0	0
177969	2.208000e+00	-1.995506e+02	5.405044e-01	0	0
179922	2.207887e+00	-1.891728e+02	5.405367e-01	0	0
181875	2.207000e+00	-1.908904e+02	5.343801e-01	0	0
183828	2.207000e+00	-1.968700e+02	4.944140e-01	0	0
185781	2.207000e+00	-1.792165e+02	4.582898e-01	0	0
187734	2.207113e+00	-1.817009e+02	4.228925e-01	0	0
189688	2.207887e+00	-1.980531e+02	3.893957e-01	0	0
191641	2.207000e+00	-2.419054e+02	3.581030e-01	0	0
193594	2.207000e+00	-2.739447e+02	3.293727e-01	0	0
195547	2.207000e+00	-2.718465e+02	3.032471e-01	0	0
197500	2.207000e+00	-2.543322e+02	2.798066e-01	0	0
199453	2.207000e+00	-1.990174e+02	2.591211e-01	0	0
201406	2.207000e+00	-1.227857e+02	2.412635e-01	0	0
203359	2.207000e+00	-3.052899e+01	2.263054e-01	0	0
205313	2.207000e+00	5.981362e+01	2.143157e-01	0	0
207266	2.207000e+00	1.730303e+02	2.054065e-01	0	0
209219	2.207000e+00	3.861359e+02	1.996652e-01	0	0
211172	2.207000e+00	6.835919e+02	1.970902e-01	0	0
213125	2.207000e+00	9.272804e+02	1.975335e-01	0	0
215078	2.207000e+00	1.184110e+03	2.009330e-01	0	0
217031	2.207000e+00	1.456768e+03	2.073754e-01	0	0
218984	2.207000e+00	1.682618e+03	2.169417e-01	0	0
220938	2.207000e+00	1.827812e+03	2.297057e-01	0	0
222891	2.207000e+00	1.776857e+03	2.456923e-01	0	0
224844	2.207000e+00	1.658260e+03	2.653234e-01	0	0
226797	2.207000e+00	1.375918e+03	2.888723e-01	0	0
228750	2.207000e+00	1.064040e+03	3.161679e-01	0	0
230703	2.207000e+00	8.694003e+02	3.470517e-01	0	0
232656	2.207000e+00	6.773741e+02	3.814278e-01	0	0
234609	2.207000e+00	4.684885e+02	4.189381e-01	0	0
236563	2.207000e+00	9.291990e+01	4.602344e-01	0	0
238516	2.207000e+00	-2.038399e+02	5.021658e-01	0	0
240469	2.207000e+00	-2.912997e+02	5.178875e-01	0	0
242422	2.207000e+00	-3.246607e+02	5.161760e-01	0	0
244375	2.207000e+00	-2.996771e+02	5.154288e-01	0	0
246328	2.207000e+00	-2.648112e+02	5.144060e-01	0	0
248281	2.207000e+00	-2.419183e+02	5.134398e-01	0	0
250234	2.207000e+00	-1.964327e+02	5.124411e-01	0	0
252188	2.207000e+00	-1.590577e+02	5.114331e-01	0	0
254141	2.207000e+00	-1.399112e+02	5.104105e-01	0	0
256094	2.207000e+00	-1.184962e+02	5.093743e-01	0	0
258047	2.207000e+00	-1.043008e+02	5.083246e-01	0	0
260000	2.207000e+00	-1.119772e+02	5.072616e-01	0	0
261953	2.206885e+00	-1.196655e+02	5.061854e-01	0	0
263906	2.206115e+00	-1.167298e+02	5.050959e-01	0	0
265859	2.207000e+00	-1.279876e+02	5.039929e-01	0	0
267813	2.207000e+00	-1.258606e+02	5.028760e-01	0	0
269766	2.206885e+00	-1.181438e+02	5.017462e-01	0	0
271719	2.206000e+00	-1.202842e+02	5.006029e-01	0	0
273672	2.206000e+00	-1.197835e+02	4.994460e-01	0	0
275625	2.206000e+00	-1.190588e+02	4.982754e-01	0	0
277578	2.206000e+00	-1.314364e+02	4.970912e-01	0	0
279531	2.206000e+00	-1.420189e+02	4.958933e-01	0	0
281484	2.206000e+00	-1.434003e+02	4.946815e-01	0	0
283438	2.206000e+00	-1.416232e+02	4.934554e-01	0	0
285391	2.206000e+00	-1.370584e+02	4.922160e-01	0	0
287344	2.206000e+00	-1.276796e+02	4.909626e-01	0	0
289297	2.206000e+00	-1.176692e+02	4.896953e-01	0	0
291250	2.206000e+00	-1.095817e+02	4.884139e-01	0	0
293203	2.206000e+00	-1.099654e+02	4.871185e-01	0	0
295156	2.206000e+00	-1.180761e+02	4.858090e-01	0	0
297109	2.206000e+00	-1.218376e+02	4.844852e-01	0	0
299063	2.206000e+00	-1.264206e+02	4.831466e-01	0	0
301016	2.206000e+00	-1.232654e+02	4.817944e-01	0	0
302969	2.206000e+00	-1.225309e+02	4.804278e-01	0	0
304922	2.206000e+00	-1.171413e+02	4.790468e-01	0	0
306875	2.206000e+00	-1.044648e+02	4.776515e-01	0	0
308828	2.206000e+00	-9.366472e+01	4.762416e-01	0	0
310781	2.206000e+00	-9.424908e+01	4.748172e-01	0	0
312734	2.206000e+00	-9.668860e+01	4.733783e-01	0	0
314688	2.206000e+00	-1.045575e+02	4.719239e-01	0	0
316641	2.206000e+00	-9.917344e+01	4.704556e-01	0	0
318594	2.206000e+00	-9.804204e+01	4.689726e-01	0	0
320547	2.206000e+00	-9.716139e+01	4.674748e-01	0	0
322500	2.206000e+00	-1.030100e+02	4.659622e-01	0	0
324453	2.206000e+00	-9.724339e+01	4.644347e-01	0	0
326406	2.206000e+00	-8.274365e+01	4.628923e-01	0	0
328359	2.206000e+00	-7.627728e+01	4.613349e-01	0	0
330313	2.206000e+00	-7.471330e+01	4.597616e-01	0	0
332266	2.206000e+00	-6.693730e+01	4.581741e-01	0	0
334219	2.206000e+00	-6.899183e+01	4.565714e-01	0	0
336172	2.206000e+00	-7.024423e+01	4.549536e-01	0	0
338125	2.206000e+00	-6.396869e+01	4.533205e-01	0	0
340078	2.206000e+00	-7.072468e+01	4.516721e-01	0	0
342031	2.206000e+00	-6.423833e+01	4.500084e-01	0	0
343984	2.206000e+00	-6.164499e+01	4.483293e-01	0	0
345938	2.206000e+00	-5.120616e+01	4.466339e-01	0	0
347891	2.206000e+00	-4.647377e+01	4.449239e-01	0	0
349844	2.205883e+00	-3.568628e+01	4.431984e-01	0	0
351797	2.205117e+00	-3.057774e+01	4.414572e-01	0	0
353750	2.206000e+00	-2.477530e+01	4.397004e-01	0	0
355703	2.205883e+00	-3.339030e+01	4.379280e-01	0	0
357656	2.205000e+00	-4.008386e+01	4.361398e-01	0	0
359609	2.205117e+00	-3.374016e+01	4.343358e-01	0	0
361563	2.205882e+00	-3.307730e+01	4.325151e-01	0	0
363516	2.205000e+00	-2.207774e+01	4.306794e-01	0	0
365469	2.205118e+00	-1.548522e+01	4.288277e-01	0	0
367422	2.205882e+00	8.844884e-01	4.269601e-01	0	0
369375	2.205000e+00	4.883008e+00	4.250764e-01	0	0
371328	2.205000e+00	-4.716619e+00	4.231766e-01	0	0
373281	2.205000e+00	1.872207e+01	4.212607e-01	0	0
375234	2.205000e+00	1.081571e+01	4.193286e-01	0	0
377188	2.205000e+00	1.519444e+01	4.173793e-01	0	0
379141	2.205000e+00	1.851405e+01	4.154147e-01	0	0
381094	2.205000e+00	2.105900e+01	4.134337e-01	0	0
383047	2.205000e+00	1.951818e+01	4.114364e-01	0	0
385000	2.205000e+00	2.323867e+01	4.094226e-01	0	0
386953	2.205000e+00	4.311229e+01	4.073923e-01	0	0
388906	2.205000e+00	4.416487e+01	4.053454e-01	0	0
390859	2.205000e+00	7.011939e+01	4.032820e-01	0	0
392813	2.205000e+00	6.893632e+01	4.012009e-01	0	0
394766	2.205000e+00	7.474235e+01	3.991041e-01	0	0
396719	2.205000e+00	9.184848e+01	3.969906e-01	0	0
398672	2.205000e+00	8.788703e+01	3.948603e-01	0	0
400625	2.205000e+00	8.487259e+01	3.927132e-01	0	0
402578	2.205000e+00	8.860129e+01	3.905491e-01	0	0
404531	2.205000e+00	9.943091e+01	3.883682e-01	0	0
406484	2.205000e+00	1.075682e+02	3.861702e-01	0	0
408438	2.205000e+00	1.300665e+02	3.839540e-01	0	0
410391	2.205000e+00	1.557492e+02	3.817219e-01	0	0
412344	2.205000e+00	1.595595e+02	3.794726e-01	0	0
414297	2.205000e+00	1.592212e+02	3.772063e-01	0	0
416250	2.205000e+00	1.642494e+02	3.749221e-01	0	0
418203	2.205000e+00	1.717828e+02	3.726232e-01	0	0
420156	2.205000e+00	1.662257e+02	3.702970e-01	0	0
422109	2.205000e+00	1.779418e+02	3.679905e-01	0	0
424063	2.205000e+00	1.880457e+02	3.655264e-01	0	0
426016	2.205000e+00	2.045117e+02	3.635656e-01	0	0
427969	2.205000e+00	2.173677e+02	3.596478e-01	0	0
429922	2.205000e+00	2.383508e+02	3.629497e-01	0	0
431875	2.205000e+00	2.626959e+02	3.388111e-01	0	0
433828	2.204880e+00	2.653577e+02	7.769500e-02	0	0
435781	2.204120e+00	2.753290e+02	-1.364192e-01	0	0
437734	2.204880e+00	2.794469e+02	-2.311915e-01	0	0
439688	2.204120e+00	2.857843e+02	-2.517914e-01	0	0
441641	2.205000e+00	2.985168e+02	-2.479386e-01	0	0
443594	2.204880e+00	3.102768e+02	-2.187612e-01	0	0
445547	2.204120e+00	3.219745e+02	-1.697494e-01	0	0
447500	2.204880e+00	3.479454e+02	-1.051324e-01	0	0
449453	2.204000e+00	3.616735e+02	-2.932548e-02	0	0
451406	2.204000e+00	3.855724e+02	5.279632e-02	0	0
453359	2.204000e+00	3.858556e+02	1.325893e-01	0	0
455313	2.204000e+00	3.858238e+02	2.041296e-01	0	0
457266	2.204120e+00	3.933722e+02	2.686841e-01	0	0
459219	2.204880e+00	3.986804e+02	3.184021e-01	0	0
461172	2.204000e+00	4.058345e+02	3.134976e-01	0	0
463125	2.204000e+00	4.178449e+02	3.108498e-01	0	0
465078	2.204000e+00	4.333531e+02	3.071356e-01	0	0
467031	2.204000e+00	4.408439e+02	3.036032e-01	0	0
468984	2.204000e+00	4.619080e+02	2.999189e-01	0	0
470938	2.204000e+00	4.750280e+02	2.961708e-01	0	0
472891	2.204000e+00	4.910246e+02	2.923394e-01	0	0
474844	2.204000e+00	4.935076e+02	2.884296e-01	0	0
476797	2.204000e+00	4.947070e+02	2.844405e-01	0	0
478750	2.204000e+00	4.749736e+02	2.803726e-01	0	0
480703	2.204000e+00	4.804571e+02	2.762279e-01	0	0
482656	2.204000e+00	4.673350e+02	2.720011e-01	0	0
484609	2.204000e+00	4.495400e+02	2.677149e-01	0	0
486563	2.204000e+00	4.420437e+02	2.632842e-01	0	0
488516	2.204000e+00	4.307875e+02	2.590262e-01	0	0
490469	2.204000e+00	4.156964e+02	2.537735e-01	0	0
492422	2.204000e+00	3.931711e+02	2.518773e-01	0	0
494375	2.204000e+00	3.532839e+02	2.371027e-01	0	0
496328	2.204000e+00	3.264352e+02	2.708110e-01	0	0
498281	2.204000e+00	2.942698e+02	7.327696e-01	0	0
500234	2.204000e+00	2.574142e+02	1.147932e+00	0	0
502188	2.204000e+00	2.321992e+02	1.307875e+00	0	0
504141	2.204000e+00	1.997890e+02	1.182352e+00	0	0
506094	2.204000e+00	1.842645e+02	7.234431e-01	0	0
508047	2.204000e+00	1.636063e+02	1.803995e-01	0	0
510000	2.204000e+00	1.500933e+02	2.130577e-01	0	0
511953	2.204000e+00	1.255713e+02	1.975806e-01	0	0
513906	2.204000e+00	1.002438e+02	1.949160e-01	0	0
515859	2.204000e+00	8.191607e+01	1.887212e-01	0	0
517813	2.204000e+00	5.395961e+01	1.834242e-01	0	0
519766	2.204000e+00	2.224278e+01	1.776513e-01	0	0
521719	2.204000e+00	8.626322e+00	1.724894e-01	0	0
523672	2.204000e+00	-6.121568e+00	1.649640e-01	0	0
525625	2.204000e+00	-6.878637e+00	1.658845e-01	0	0
527578	2.204000e+00	-1.690385e+01	1.344460e-01	0	0
529531	2.204000e+00	-1.707892e+01	-2.004044e-01	0	0
531484	2.204000e+00	-2.586357e+01	-5.677014e-01	0	0
533438	2.204000e+00	-2.471454e+01	-8.089896e-01	0	0
535391	2.204000e+00	-4.082984e+01	-9.351646e-01	0	0
537344	2.204000e+00	-5.959367e+01	-9.470462e-01	0	0
539297	2.204000e+00	-7.450818e+01	-8.446369e-01	0	0
541250	2.203877e+00	-7.168404e+01	-6.338263e-01	0	0
543203	2.203000e+00	-7.780506e+01	-2.999552e-01	0	0
545156	2.203000e+00	-8.455281e+01	8.636685e-02	0	0
547109	2.203000e+00	-7.584536e+01	8.928280e-02	0	0
549063	2.203000e+00	-7.179141e+01	8.713705e-02	0	0
551016	2.203000e+00	-6.015234e+01	7.938196e-02	0	0
552969	2.203000e+00	-6.919449e+01	7.299195e-02	0	0
554922	2.203000e+00	-7.778674e+01	6.641807e-02	0	0
556875	2.203000e+00	-8.424990e+01	5.887126e-02	0	0
558828	2.203000e+00	-8.231290e+01	5.505941e-02	0	0
560781	2.203000e+00	-1.009548e+02	3.703346e-02	0	0
562734	2.203000e+00	-1.030890e+02	1.398997e-01	0	0
564688	2.203000e+00	-9.963625e+01	7.704387e-01	0	0
566641	2.203000e+00	-1.058442e+02	1.046528e+00	0	0
568594	2.203000e+00	-9.305713e+01	1.055907e+00	0	0
570547	2.203000e+00	-7.937458e+01	7.652023e-01	0	0
572500	2.203000e+00	-9.045667e+01	2.464379e-01	0	0
574453	2.203000e+00	-1.006186e+02	-3.019567e-02	0	0
576406	2.203000e+00	-1.021783e+02	2.526983e-01	0	0
578359	2.203000e+00	-1.073423e+02	1.003306e+00	0	0
580313	2.203000e+00	-1.177405e+02	-4.100670e-02	0	0
582266	2.203000e+00	-1.122693e+02	-1.540778e-02	0	0
584219	2.203000e+00	-1.061569e+02	-5.149148e-02	0	0
586172	2.203000e+00	-1.088378e+02	-2.362122e-02	0	0
588125	2.203000e+00	-9.740589e+01	-1.470864e-01	0	0
590078	2.203000e+00	-9.189251e+01	-1.806885e+00	0	0
592031	2.203000e+00	-9.380539e+01	-3.685120e+00	0	0
593984	2.203000e+00	-1.034892e+02	-3.293360e+00	0	0
595938	2.203000e+00	-1.094923e+02	-1.488954e+00	0	0
597891	2.203000e+00	-1.106909e+02	-7.629414e-01	0	0
599844	2.203000e+00	-1.175121e+02	-6.538708e-01	0	0
601797	2.203000e+00	-1.193885e+02	-4.357696e-01	0	0
603750	2.203000e+00	-1.082550e+02	-2.015523e-01	0	0
605703	2.203000e+00	-1.092863e+02	-9.509980e-02	0	0
607656	2.203000e+00	-1.063900e+02	6.478296e-01	0	0
609609	2.203000e+00	-9.097224e+01	1.951022e+00	0	0
611563	2.203000e+00	-9.578567e+01	2.212865e+00	0	0
613516	2.203000e+00	-9.475658e+01	1.429096e+00	0	0
615469	2.203000e+00	-9.805930e+01	-1.277044e-01	0	0
617422	2.203000e+00	-1.046906e+02	-1.596058e-01	0	0
619375	2.203000e+00	-1.057425e+02	-1.881810e-01	0	0
621328	2.203000e+00	-1.146772e+02	-1.891865e-01	0	0
623281	2.203000e+00	-1.223369e+02	-2.065533e-01	0	0
625234	2.203000e+00	-1.056647e+02	-1.862922e-01	0	0
627188	2.203000e+00	-1.032376e+02	-3.149144e-01	0	0
629141	2.203000e+00	-8.870062e+01	-1.336887e+00	0	0
631094	2.202875e+00	-7.828753e+01	-1.355775e+00	0	0
633047	2.202000e+00	-8.610571e+01	-6.687483e-01	0	0
635000	2.202000e+00	-9.176435e+01	-2.294968e-01	0	0
636953	2.202000e+00	-9.151665e+01	-2.656454e-01	0	0
638906	2.202000e+00	-9.233954e+01	-2.670999e-01	0	0
640859	2.202000e+00	-1.006384e+02	-2.767232e-01	0	0
642813	2.202000e+00	-1.041788e+02	-2.756319e-01	0	0
644766	2.202000e+00	-1.011486e+02	-2.758157e-01	0	0
646719	2.202000e+00	-9.372590e+01	-2.759171e-01	0	0
648672	2.202000e+00	-8.083127e+01	-2.750698e-01	0	0
650625	2.202000e+00	-7.865334e+01	-2.780986e-01	0	0
652578	2.202000e+00	-7.914638e+01	-2.664210e-01	0	0
654531	2.202000e+00	-7.974496e+01	-2.016118e-01	0	0
656484	2.202000e+00	-9.526247e+01	-2.816657e-01	0	0
658438	2.202000e+00	-9.165445e+01	-2.738521e-01	0	0
660391	2.202000e+00	-9.242039e+01	-2.758949e-01	0	0
662344	2.202000e+00	-9.693577e+01	-2.752916e-01	0	0
664297	2.202000e+00	-9.406756e+01	-2.753971e-01	0	0
666250	2.202000e+00	-8.398412e+01	-2.753124e-01	0	0
668203	2.202000e+00	-8.427628e+01	-2.752786e-01	0	0
670156	2.202000e+00	-7.533779e+01	-2.752309e-01	0	0
672109	2.202000e+00	-8.159876e+01	-2.751868e-01	0	0
674063	2.202000e+00	-8.631927e+01	-2.751415e-01	0	0
676016	2.202000e+00	-8.800014e+01	-2.750963e-01	0	0
677969	2.202000e+00	-9.217493e+01	-2.750509e-01	0	0
679922	2.202000e+00	-9.019190e+01	-2.750054e-01	0	0
681875	2.202000e+00	-9.093420e+01	-2.749598e-01	0	0
683828	2.202000e+00	-9.482586e+01	-2.749140e-01	0	0
685781	2.202000e+00	-8.781964e+01	-2.748680e-01	0	0
687734	2.202000e+00	-7.608183e+01	-2.748219e-01	0	0
689688	2.202000e+00	-7.442735e+01	-2.747756e-01	0	0
691641	2.202000e+00	-7.399901e+01	-2.747293e-01	0	0
693594	2.202000e+00	-7.759687e+01	-2.746827e-01	0	0
695547	2.202000e+00	-6.783272e+01	-2.746360e-01	0	0
697500	2.202000e+00	-7.913583e+01	-2.745892e-01	0	0
699453	2.202000e+00	-8.775186e+01	-2.745422e-01	0	0
701406	2.202000e+00	-9.159757e+01	-2.744950e-01	0	0
703359	2.202000e+00	-1.014785e+02	-2.744478e-01	0	0
705313	2.202000e+00	-1.066240e+02	-2.744001e-01	0	0
707266	2.202000e+00	-1.016743e+02	-2.743534e-01	0	0
709219	2.202000e+00	-8.486576e+01	-2.743023e-01	0	0
711172	2.202000e+00	-8.229531e+01	-2.742669e-01	0	0
713125	2.202000e+00	-8.218736e+01	-2.741723e-01	0	0
715078	2.202000e+00	-9.008916e+01	-2.742981e-01	0	0
717031	2.202000e+00	-9.467854e+01	-2.736002e-01	0	0
718984	2.202000e+00	-9.465112e+01	-2.759758e-01	0	0
720938	2.202000e+00	-1.006228e+02	-2.668494e-01	0	0
722891	2.201872e+00	-1.062405e+02	-3.014392e-01	0	0
724844	2.201128e+00	-9.413438e+01	-6.729559e-01	0	0
726797	2.202000e+00	-8.657577e+01	-7.135597e-01	0	0
728750	2.202000e+00	-8.181936e+01	-2.422706e-01	0	0
730703	2.202000e+00	-7.588748e+01	-2.818096e-01	0	0
732656	2.202000e+00	-9.074403e+01	-2.731090e-01	0	0
734609	2.201872e+00	-1.005299e+02	-2.680784e-01	0	0
736563	2.201000e+00	-1.028793e+02	-2.967028e-01	0	0
738516	2.201128e+00	-1.088392e+02	-1.848236e-01	0	0
740469	2.201872e+00	-1.093193e+02	7.856118e-01	0	0
742422	2.201000e+00	-1.072200e+02	5.763417e-01	0	0
744375	2.201000e+00	-1.045645e+02	-3.303151e-01	0	0
746328	2.201000e+00	-9.392994e+01	-2.584297e-01	0	0
748281	2.201000e+00	-9.095181e+01	-2.761873e-01	0	0
750234	2.201000e+00	-8.254872e+01	-2.767334e-01	0	0
752188	2.201000e+00	-7.537503e+01	-2.564141e-01	0	0
754141	2.201000e+00	-8.639114e+01	-3.385934e-01	0	0
756094	2.201000e+00	-9.633413e+01	-1.177026e+00	0	0
758047	2.201000e+00	-9.209278e+01	-1.601158e+00	0	0
760000	2.201000e+00	-1.039692e+02	-1.175273e+00	0	0
761953	2.201000e+00	-1.131248e+02	-2.165790e-01	0	0
763906	2.201000e+00	-1.028686e+02	-2.886876e-01	0	0
765859	2.201000e+00	-1.009433e+02	-2.684045e-01	0	0
767813	2.201000e+00	-9.253873e+01	-2.748369e-01	0	0
769766	2.201000e+00	-8.650931e+01	-2.690828e-01	0	0
771719	2.201000e+00	-8.770078e+01	-2.853379e-01	0	0
773672	2.201000e+00	-8.588739e+01	-2.243368e-01	0	0
775625	2.201000e+00	-9.872741e+01	4.999682e-01	0	0
777578	2.201000e+00	-1.022520e+02	1.106561e+00	0	0
779531	2.201000e+00	-1.069212e+02	7.448142e-01	0	0
781484	2.201000e+00	-1.168715e+02	-2.164296e-01	0	0
783438	2.201000e+00	-1.162165e+02	-2.647844e-01	0	0
785391	2.201000e+00	-1.056709e+02	-2.742756e-01	0	0
787344	2.201000e+00	-1.115514e+02	-2.720740e-01	0	0
789297	2.201000e+00	-9.620905e+01	-2.710676e-01	0	0
791250	2.201000e+00	-8.246318e+01	-2.769712e-01	0	0
793203	2.201000e+00	-9.572610e+01	-2.540477e-01	0	0
795156	2.201000e+00	-1.002510e+02	-3.456293e-01	0	0
797109	2.201000e+00	-1.032214e+02	-1.134097e+00	0	0
799063	2.201000e+00	-9.559388e+01	-1.305462e+00	0	0
801016	2.201000e+00	-8.983045e+01	-1.009757e+00	0	0
802969	2.201000e+00	-7.893068e+01	-3.840464e-01	0	0
804922	2.201000e+00	-6.635774e+01	-2.711184e-01	0	0
806875	2.201000e+00	-1.781703e+01	-2.719059e-01	0	0
808828	2.201000e+00	2.703097e+01	-2.716248e-01	0	0
810781	2.201000e+00	3.796077e+01	-2.716298e-01	0	0
812734	2.201000e+00	5.203248e+01	-2.715579e-01	0	0
814688	2.201000e+00	5.326776e+01	-2.715064e-01	0	0
816641	2.201000e+00	4.947825e+01	-2.714493e-01	0	0
818594	2.201000e+00	4.562093e+01	-2.713935e-01	0	0
820547	2.201000e+00	4.123434e+01	-2.713371e-01	0	0
822500	2.200870e+00	5.169433e+01	-2.712807e-01	0	0
824453	2.200130e+00	5.696082e+01	-2.712242e-01	0	0
826406	2.200870e+00	6.835358e+01	-2.711675e-01	0	0
828359	2.200000e+00	9.213873e+01	-2.711106e-01	0	0
830313	2.200131e+00	1.068935e+02	-2.710536e-01	0	0
832266	2.200869e+00	1.189014e+02	-2.709964e-01	0	0
834219	2.200000e+00	1.264819e+02	-2.709391e-01	0	0
836172	2.200000e+00	1.251641e+02	-2.708816e-01	0	0
838125	2.200000e+00	1.264682e+02	-2.708240e-01	0	0
840078	2.200000e+00	1.366068e+02	-2.707662e-01	0	0
842031	2.200000e+00	1.342858e+02	-2.707083e-01	0	0
843984	2.200000e+00	1.425689e+02	-2.706502e-01	0	0
845938	2.200000e+00	1.595057e+02	-2.705920e-01	0	0
847891	2.200000e+00	1.573935e+02	-2.705336e-01	0	0
849844	2.200000e+00	1.529233e+02	-2.704751e-01	0	0
851797	2.200000e+00	1.497037e+02	-2.704164e-01	0	0
853750	2.200000e+00	1.663088e+02	-2.703576e-01	0	0
855703	2.200000e+00	1.477960e+02	-2.702986e-01	0	0
857656	2.200000e+00	1.421662e+02	-2.702395e-01	0	0
859609	2.200000e+00	1.356053e+02	-2.701802e-01	0	0
861563	2.200000e+00	1.256638e+02	-2.701208e-01	0	0
863516	2.200000e+00	1.241323e+02	-2.700612e-01	0	0
865469	2.200000e+00	9.804902e+01	-2.700015e-01	0	0
867422	2.200000e+00	8.112835e+01	-2.699416e-01	0	0
869375	2.200000e+00	6.139876e+01	-2.698815e-01	0	0
871328	2.200000e+00	4.260904e+01	-2.698214e-01	0	0
873281	2.200000e+00	1.480920e+01	-2.697610e-01	0	0
875234	2.200000e+00	-2.727067e+00	-2.697005e-01	0	0
877188	2.200000e+00	-2.086190e+01	-2.696399e-01	0	0
879141	2.200000e+00	-4.676275e+01	-2.695791e-01	0	0
881094	2.200000e+00	-6.534181e+01	-2.695181e-01	0	0
883047	2.200000e+00	-8.020645e+01	-2.694570e-01	0	0
885000	2.200000e+00	-8.227038e+01	-2.693958e-01	0	0
886953	2.200000e+00	-8.168228e+01	-2.693344e-01	0	0
888906	2.200000e+00	-8.914395e+01	-2.692729e-01	0	0
890859	2.200000e+00	-8.101403e+01	-2.692112e-01	0	0
892813	2.200000e+00	-9.332365e+01	-2.691492e-01	0	0
894766	2.200000e+00	-1.119532e+02	-2.690872e-01	0	0
896719	2.200000e+00	-1.127969e+02	-2.690249e-01	0	0
898672	2.200000e+00	-1.222467e+02	-2.689625e-01	0	0
900625	2.200000e+00	-1.376587e+02	-2.688998e-01	0	0
902578	2.200000e+00	-1.303564e+02	-2.688370e-01	0	0
904531	2.200000e+00	-1.426291e+02	-2.687739e-01	0	0
906484	2.200000e+00	-1.255670e+02	-2.687107e-01	0	0
908438	2.200000e+00	-1.390226e+02	-2.686473e-01	0	0
910391	2.200000e+00	-1.395996e+02	-2.685837e-01	0	0
912344	2.200000e+00	-1.273466e+02	-2.685198e-01	0	0
914297	2.200000e+00	-1.477273e+02	-2.684559e-01	0	0
916250	2.199867e+00	-1.467049e+02	-2.683917e-01	0	0
918203	2.199000e+00	-1.648220e+02	-2.683273e-01	0	0
920156	2.199133e+00	-1.669458e+02	-2.682626e-01	0	0
922109	2.199867e+00	-1.554648e+02	-2.681983e-01	0	0
924063	2.199133e+00	-1.512908e+02	-2.681317e-01	0	0
926016	2.200000e+00	-1.570916e+02	-2.680723e-01	0	0
927969	2.199867e+00	-1.412290e+02	-2.679855e-01	0	0
929922	2.199000e+00	-1.439094e+02	-2.680002e-01	0	0
931875	2.199000e+00	-1.364624e+02	-2.676351e-01	0	0
933828	2.199000e+00	-1.396911e+02	-2.686863e-01	0	0
935781	2.199000e+00	-1.402843e+02	-2.643161e-01	0	0
937734	2.199000e+00	-1.436835e+02	-1.975042e-01	0	0
939688	2.199000e+00	-1.514253e+02	-1.233050e-01	0	0
941641	2.199000e+00	-1.625207e+02	-1.359373e-02	0	0
943594	2.199000e+00	-1.754398e+02	3.790040e-01	0	0
945547	2.199000e+00	-1.772473e+02	3.663423e-01	0	0
947500	2.199000e+00	-1.644860e+02	6.421421e-02	0	0
949453	2.199000e+00	-1.538056e+02	1.058511e-01	0	0
951406	2.199000e+00	-1.534965e+02	9.545234e-02	0	0
953359	2.199000e+00	-1.466056e+02	8.366071e-02	0	0
955313	2.199000e+00	-1.474890e+02	5.323317e-02	0	0
957266	2.199000e+00	-1.542089e+02	4.208774e-02	0	0
959219	2.199000e+00	-1.795365e+02	-2.088325e-01	0	0
961172	2.199000e+00	-2.203628e+02	-1.297917e+00	0	0
963125	2.199000e+00	-2.473100e+02	-1.140016e+00	0	0
965078	2.199000e+00	-2.436493e+02	-1.337941e-01	0	0
967031	2.199000e+00	-2.164755e+02	-2.739832e-01	0	0
968984	2.199000e+00	-1.691800e+02	-2.643063e-01	0	0
970938	2.199000e+00	-8.541943e+01	-2.583281e-01	0	0
972891	2.199000e+00	1.237911e+01	-3.014766e-01	0	0
974844	2.199000e+00	8.289294e+01	-1.308632e-01	0	0
976797	2.199000e+00	2.018678e+02	1.367849e+00	0	0
978750	2.199000e+00	3.931199e+02	1.487674e+00	0	0
980703	2.199000e+00	6.656822e+02	3.314491e-01	0	0
982656	2.199000e+00	9.192366e+02	-2.971670e-01	0	0
984609	2.199000e+00	1.183185e+03	-2.546950e-01	0	0
986563	2.199000e+00	1.461590e+03	-2.802511e-01	0	0
988516	2.199000e+00	1.700591e+03	-2.200535e-01	0	0
990469	2.199000e+00	1.878492e+03	-4.392082e-01	0	0
992422	2.199000e+00	1.836704e+03	-2.220003e+00	0	0
994375	2.199000e+00	1.718234e+03	-2.053038e+00	0	0
996328	2.199000e+00	1.439693e+03	-7.220266e-01	0	0
998281	2.199000e+00	1.086087e+03	-2.469807e-01	0	0
1000234	2.199000e+00	8.874765e+02	-2.728429e-01	0	0
1002188	2.199000e+00	6.843601e+02	-2.609188e-01	0	0
1004141	2.199000e+00	4.914547e+02	-3.015944e-01	0	0
1006094	2.199000e+00	1.271679e+02	-1.685964e-01	0	0
1008047	2.199000e+00	-1.649857e+02	9.535039e-01	0	0
1010000	2.199000e+00	-2.399816e+02	7.330890e-01	0	0
1011953	2.199000e+00	-2.767587e+02	-3.583481e-01	0	0
1013906	2.199000e+00	-2.336104e+02	-2.696103e-01	0	0
1015859	2.199000e+00	-2.203370e+02	-2.972298e-01	0	0
1017813	2.199000e+00	-2.074337e+02	-2.930864e-01	0	0
1019766	2.199000e+00	-1.642783e+02	-2.993694e-01	0	0
1021719	2.199000e+00	-1.270396e+02	-4.179595e-01	0	0
1023672	2.199000e+00	-1.114497e+02	-5.550857e-01	0	0
1025625	2.199000e+00	-9.943417e+01	-2.962198e-01	0	0
1027578	2.199000e+00	-7.751330e+01	-4.834645e-01	0	0
1029531	2.199000e+00	-7.416213e+01	-6.275183e-01	0	0
1031484	2.199000e+00	-7.667179e+01	-7.561491e-01	0	0
1033438	2.198864e+00	-7.369766e+01	-8.735918e-01	0	0
1035391	2.198000e+00	-9.237680e+01	-9.041341e-01	0	0
1037344	2.198000e+00	-1.015134e+02	-7.149260e-01	0	0
1039297	2.198136e+00	-1.122653e+02	-1.032547e+00	0	0
1041250	2.199000e+00	-1.139084e+02	-9.858757e-01	0	0
1043203	2.198864e+00	-1.145922e+02	-9.550082e-01	0	0
1045156	2.198000e+00	-1.114740e+02	-9.202722e-01	0	0
1047109	2.198000e+00	-1.076006e+02	-8.290130e-01	0	0
1049063	2.198000e+00	-9.571195e+01	-9.273674e-01	0	0
1051016	2.198000e+00	-9.450085e+01	-1.914860e+00	0	0
1052969	2.198000e+00	-8.603537e+01	-1.270696e+00	0	0
1054922	2.198137e+00	-8.856940e+01	-5.613619e-01	0	0
1056875	2.198863e+00	-9.912397e+01	-5.300980e-01	0	0
1058828	2.198000e+00	-1.018875e+02	-4.340849e-01	0	0
1060781	2.198000e+00	-1.148704e+02	-3.634891e-01	0	0
1062734	2.198000e+00	-1.049423e+02	-3.225042e-01	0	0
1064688	2.198000e+00	-9.653769e+01	1.941702e-01	0	0
1066641	2.198000e+00	-9.029684e+01	1.191076e+00	0	0
1068594	2.198000e+00	-7.608874e+01	1.250690e+00	0	0
1070547	2.198000e+00	-5.370500e+01	7.552620e-01	0	0
1072500	2.198000e+00	-5.227453e+01	-1.899626e-01	0	0
1074453	2.198000e+00	-7.096665e+01	-3.433339e-01	0	0
1076406	2.198000e+00	-7.382479e+01	-3.438120e-01	0	0
1078359	2.198000e+00	-6.899137e+01	-3.443236e-01	0	0
1080313	2.198000e+00	-7.961297e+01	-3.447502e-01	0	0
1082266	2.198000e+00	-7.520301e+01	-3.451258e-01	0	0
1084219	2.198000e+00	-6.855433e+01	-3.454322e-01	0	0
1086172	2.198000e+00	-7.057208e+01	-3.457103e-01	0	0
1088125	2.198000e+00	-5.960017e+01	-3.458155e-01	0	0
1090078	2.198000e+00	-4.860814e+01	-3.462867e-01	0	0
1092031	2.198000e+00	-3.605378e+01	-3.451221e-01	0	0
1093984	2.198000e+00	-3.875640e+01	-3.498933e-01	0	0
1095938	2.198000e+00	-5.366494e+01	-3.730695e-01	0	0
1097891	2.198000e+00	-5.200714e+01	-3.436680e-01	0	0
1099844	2.198000e+00	-5.426730e+01	-3.466184e-01	0	0
1101797	2.198000e+00	-4.865686e+01	-3.456487e-01	0	0
1103750	2.198000e+00	-6.085660e+01	-3.456699e-01	0	0
1105703	2.198000e+00	-4.666391e+01	-3.453663e-01	0	0
1107656	2.198000e+00	-3.580796e+01	-3.450905e-01	0	0
1109609	2.198000e+00	-2.915250e+01	-3.447482e-01	0	0
1111563	2.198000e+00	-2.298553e+01	-3.443647e-01	0	0
1113516	2.198000e+00	-1.808309e+01	-3.439333e-01	0	0
1115469	2.198000e+00	-4.843357e+00	-3.434571e-01	0	0
1117422	2.198000e+00	-1.651420e+01	-3.429308e-01	0	0
1119375	2.198000e+00	-9.177847e+00	-3.423020e-01	0	0
1121328	2.198000e+00	-1.037924e+01	-3.415299e-01	0	0
1123281	2.198000e+00	-1.083393e+01	-3.406193e-01	0	0
1125234	2.198000e+00	9.686608e-01	-3.395705e-01	0	0
1127188	2.198000e+00	3.835321e+00	-3.383873e-01	0	0
1129141	2.198000e+00	1.560986e+01	-3.370635e-01	0	0
1131094	2.198000e+00	2.192592e+01	-3.356340e-01	0	0
1133047	2.198000e+00	1.838301e+01	-3.339742e-01	0	0
1135000	2.198000e+00	2.835818e+01	-3.324159e-01	0	0
1136953	2.198000e+00	3.050020e+01	-3.292537e-01	0	0
1138906	2.198000e+00	3.330981e+01	-3.305644e-01	0	0
1140859	2.198000e+00	3.031979e+01	-3.137155e-01	0	0
1142813	2.198000e+00	2.158976e+01	-3.647644e-01	0	0
1144766	2.198000e+00	4.059883e+01	-9.258375e-01	0	0
1146719	2.198000e+00	3.932023e+01	-1.047473e+00	0	0
1148672	2.197861e+00	4.836922e+01	-2.627966e-01	0	0
1150625	2.197000e+00	6.520396e+01	-9.441412e-02	0	0
1152578	2.197000e+00	6.490188e+01	-2.014059e-02	0	0
1154531	2.197000e+00	6.931498e+01	5.441061e-02	0	0
1156484	2.197000e+00	7.151825e+01	8.003364e-02	0	0
1158438	2.197140e+00	6.749452e+01	2.604713e-01	0	0
1160391	2.197860e+00	5.651328e+01	1.247104e+00	0	0
1162344	2.197140e+00	7.499863e+01	9.490916e-01	0	0
1164297	2.197860e+00	8.524380e+01	1.961325e-01	0	0
1166250	2.197000e+00	9.117340e+01	2.599934e-01	0	0
1168203	2.197000e+00	1.051025e+02	2.299700e-01	0	0
1170156	2.197000e+00	1.227427e+02	2.050622e-01	0	0
1172109	2.197000e+00	1.295096e+02	1.711058e-01	0	0
1174063	2.197000e+00	1.388384e+02	1.116454e-01	0	0
1176016	2.197000e+00	1.392182e+02	-1.169586e-02	0	0
1177969	2.197000e+00	1.462445e+02	1.832548e-02	0	0
1179922	2.197000e+00	1.419575e+02	-5.762112e-02	0	0
1181875	2.197000e+00	1.449573e+02	-1.278479e-01	0	0
1183828	2.197000e+00	1.502631e+02	-2.065364e-01	0	0
1185781	2.197000e+00	1.640756e+02	-2.607770e-01	0	0
1187734	2.197000e+00	1.848883e+02	-2.567585e-01	0	0
1189688	2.197000e+00	2.047137e+02	-2.577201e-01	0	0
1191641	2.197000e+00	2.192613e+02	-2.573459e-01	0	0
1193594	2.197000e+00	2.177254e+02	-2.573300e-01	0	0
1195547	2.197000e+00	2.291273e+02	-2.572178e-01	0	0
1197500	2.197000e+00	2.270444e+02	-2.571312e-01	0	0
1199453	2.197000e+00	2.444039e+02	-2.570375e-01	0	0
1201406	2.197000e+00	2.539771e+02	-2.569454e-01	0	0
1203359	2.197000e+00	2.589010e+02	-2.568527e-01	0	0
1205313	2.197000e+00	2.648364e+02	-2.567598e-01	0	0
1207266	2.197000e+00	2.798258e+02	-2.566668e-01	0	0
1209219	2.197000e+00	3.049834e+02	-2.565736e-01	0	0
1211172	2.197000e+00	3.221656e+02	-2.564802e-01	0	0
1213125	2.197000e+00	3.311295e+02	-2.563866e-01	0	0
1215078	2.197000e+00	3.436370e+02	-2.562927e-01	0	0
1217031	2.197000e+00	3.585416e+02	-2.561987e-01	0	0
1218984	2.197000e+00	3.589067e+02	-2.561045e-01	0	0
1220938	2.197000e+00	3.677022e+02	-2.560101e-01	0	0
1222891	2.197000e+00	3.771753e+02	-2.559155e-01	0	0
1224844	2.197000e+00	4.003187e+02	-2.558207e-01	0	0
1226797	2.197000e+00	4.252432e+02	-2.557258e-01	0	0
1228750	2.197000e+00	4.327329e+02	-2.556306e-01	0	0
1230703	2.197000e+00	4.505971e+02	-2.555352e-01	0	0
1232656	2.197000e+00	4.657418e+02	-2.554397e-01	0	0
1234609	2.197000e+00	4.680524e+02	-2.553439e-01	0	0
1236563	2.197000e+00	4.828997e+02	-2.552479e-01	0	0
1238516	2.197000e+00	4.930291e+02	-2.551518e-01	0	0
1240469	2.197000e+00	4.903728e+02	-2.550555e-01	0	0
1242422	2.197000e+00	4.927590e+02	-2.549589e-01	0	0
1244375	2.197000e+00	4.986500e+02	-2.548622e-01	0	0
1246328	2.197000e+00	5.050623e+02	-2.547653e-01	0	0
1248281	2.197000e+00	5.074840e+02	-2.546682e-01	0	0
1250234	2.197000e+00	5.176065e+02	-2.545709e-01	0	0
1252188	2.197000e+00	5.095967e+02	-2.544733e-01	0	0
1254141	2.197000e+00	4.914635e+02	-2.543756e-01	0	0
1256094	2.197000e+00	4.677508e+02	-2.542777e-01	0	0
1258047	2.197000e+00	4.464029e+02	-2.541796e-01	0	0
1260000	2.197000e+00	4.160249e+02	-2.540813e-01	0	0
1261953	2.197000e+00	3.936891e+02	-2.539829e-01	0	0
1263906	2.197000e+00	3.640949e+02	-2.538842e-01	0	0
1265859	2.197000e+00	3.472578e+02	-2.537853e-01	0	0
1267813	2.197000e+00	3.331510e+02	-2.536862e-01	0	0
1269766	2.197000e+00	3.205332e+02	-2.535870e-01	0	0
1271719	2.197000e+00	2.863011e+02	-2.534875e-01	0	0
1273672	2.197000e+00	2.539610e+02	-2.533880e-01	0	0
1275625	2.197000e+00	2.174374e+02	-2.532873e-01	0	0
1277578	2.197000e+00	1.859397e+02	-2.531904e-01	0	0
1279531	2.197000e+00	1.658832e+02	-2.530785e-01	0	0
1281484	2.196857e+00	1.223684e+02	-2.530217e-01	0	0
1283438	2.196143e+00	1.103805e+02	-2.527577e-01	0	0
1285391	2.197000e+00	9.206406e+01	-2.532883e-01	0	0
1287344	2.197000e+00	8.197138e+01	-2.616914e-01	0	0
1289297	2.197000e+00	7.412734e+01	-2.741074e-01	0	0
1291250	2.197000e+00	4.932889e+01	-2.816976e-01	0	0
1293203	2.197000e+00	1.761882e+01	-2.851290e-01	0	0
1295156	2.197000e+00	1.958006e+00	-2.842003e-01	0	0
1297109	2.196857e+00	-1.782059e-01	-2.791777e-01	0	0
1299063	2.196000e+00	-1.716270e+01	-2.695624e-01	0	0
1301016	2.196144e+00	-2.693826e+01	-2.566636e-01	0	0
1302969	2.196856e+00	-3.748746e+01	-2.516483e-01	0	0
1304922	2.196000e+00	-4.196540e+01	-2.518262e-01	0	0
1306875	2.196144e+00	-3.841689e+01	-2.516481e-01	0	0
1308828	2.196856e+00	-4.103035e+01	-2.515651e-01	0	0
1310781	2.196000e+00	-3.662781e+01	-2.514563e-01	0	0
1312734	2.196000e+00	-5.135148e+01	-2.513542e-01	0	0
1314688	2.196000e+00	-4.832073e+01	-2.512500e-01	0	0
1316641	2.196000e+00	-6.694558e+01	-2.511462e-01	0	0
1318594	2.196000e+00	-7.347647e+01	-2.510420e-01	0	0
1320547	2.196000e+00	-8.555901e+01	-2.509377e-01	0	0
1322500	2.196000e+00	-9.280108e+01	-2.508332e-01	0	0
1324453	2.196000e+00	-8.932424e+01	-2.507285e-01	0	0
1326406	2.196000e+00	-8.275824e+01	-2.506236e-01	0	0
1328359	2.196000e+00	-8.095576e+01	-2.505185e-01	0	0
1330313	2.196000e+00	-7.547408e+01	-2.504131e-01	0	0
1332266	2.196000e+00	-6.758585e+01	-2.503076e-01	0	0
1334219	2.196000e+00	-8.126839e+01	-2.502019e-01	0	0
1336172	2.196000e+00	-8.520359e+01	-2.500961e-01	0	0
1338125	2.196000e+00	-9.277477e+01	-2.499900e-01	0	0
1340078	2.196000e+00	-1.011991e+02	-2.498837e-01	0	0
1342031	2.196000e+00	-1.112061e+02	-2.497772e-01	0	0
1343984	2.196000e+00	-1.055244e+02	-2.496706e-01	0	0
1345938	2.196000e+00	-1.024959e+02	-2.495636e-01	0	0
1347891	2.196000e+00	-9.451139e+01	-2.494566e-01	0	0
1349844	2.196000e+00	-9.442489e+01	-2.493493e-01	0	0
1351797	2.196000e+00	-8.219443e+01	-2.492419e-01	0	0
1353750	2.196000e+00	-7.024803e+01	-2.491342e-01	0	0
1355703	2.196000e+00	-8.166458e+01	-2.490264e-01	0	0
1357656	2.196000e+00	-8.546105e+01	-2.489184e-01	0	0
1359609	2.196000e+00	-9.424607e+01	-2.488102e-01	0	0
1361563	2.196000e+00	-1.004461e+02	-2.487017e-01	0	0
1363516	2.196000e+00	-1.034763e+02	-2.485931e-01	0	0
1365469	2.196000e+00	-1.014389e+02	-2.484842e-01	0	0
1367422	2.196000e+00	-1.003478e+02	-2.483752e-01	0	0
1369375	2.196000e+00	-9.513488e+01	-2.482660e-01	0	0
1371328	2.196000e+00	-9.270791e+01	-2.481566e-01	0	0
1373281	2.196000e+00	-8.960361e+01	-2.480470e-01	0	0
1375234	2.196000e+00	-9.548850e+01	-2.479372e-01	0	0
1377188	2.196000e+00	-9.651849e+01	-2.478272e-01	0	0
1379141	2.196000e+00	-1.021539e+02	-2.477170e-01	0	0
1381094	2.196000e+00	-1.069551e+02	-2.476066e-01	0	0
1383047	2.196000e+00	-8.821256e+01	-2.474961e-01	0	0
1385000	2.196000e+00	-9.317042e+01	-2.473853e-01	0	0
1386953	2.196000e+00	-9.118059e+01	-2.472743e-01	0	0
1388906	2.196000e+00	-9.124083e+01	-2.471632e-01	0	0
1390859	2.196000e+00	-7.341462e+01	-2.470518e-01	0	0
1392813	2.196000e+00	-8.255950e+01	-2.469402e-01	0	0
1394766	2.196000e+00	-8.583944e+01	-2.468285e-01	0	0
1396719	2.196000e+00	-8.388615e+01	-2.467165e-01	0	0
1398672	2.196000e+00	-8.659363e+01	-2.466044e-01	0	0
1400625	2.196000e+00	-1.000361e+02	-2.464921e-01	0	0
1402578	2.196000e+00	-9.122908e+01	-2.463795e-01	0	0
1404531	2.196000e+00	-8.634173e+01	-2.462668e-01	0	0
1406484	2.196000e+00	-7.851940e+01	-2.461539e-01	0	0
1408438	2.196000e+00	-6.034624e+01	-2.460408e-01	0	0
1410391	2.196000e+00	-7.211628e+01	-2.459273e-01	0	0
1412344	2.196000e+00	-6.532411e+01	-2.458143e-01	0	0
1414297	2.196000e+00	-7.878120e+01	-2.456989e-01	0	0
1416250	2.196000e+00	-7.018365e+01	-2.455913e-01	0	0
1418203	2.196000e+00	-6.912771e+01	-2.454535e-01	0	0
1420156	2.196000e+00	-8.734918e+01	-2.454280e-01	0	0
1422109	2.196000e+00	-8.881920e+01	-2.449820e-01	0	0
1424063	2.196000e+00	-8.991703e+01	-2.461082e-01	0	0
1426016	2.196000e+00	-9.593090e+01	-2.413588e-01	0	0
1427969	2.196000e+00	-7.321344e+01	-2.585385e-01	0	0
1429922	2.196000e+00	-6.620720e+01	-1.926809e-01	0	0
1431875	2.196000e+00	-7.007750e+01	1.261507e-01	0	0
1433828	2.196000e+00	-6.036348e+01	-2.152859e-01	0	0
1435781	2.196000e+00	-6.379208e+01	-2.412822e-01	0	0
1437734	2.196000e+00	-7.291440e+01	-2.451603e-01	0	0
1439688	2.196000e+00	-7.178560e+01	-2.439985e-01	0	0
1441641	2.196000e+00	-7.987091e+01	-2.440686e-01	0	0
1443594	2.196000e+00	-8.466118e+01	-2.442535e-01	0	0
1445547	2.195852e+00	-7.721799e+01	-2.427441e-01	0	0
1447500	2.195148e+00	-5.867058e+01	-2.485220e-01	0	0
1449453	2.195852e+00	-5.035903e+01	-5.208514e-01	0	0
1451406	2.195000e+00	-4.598978e+01	-1.140915e+00	0	0
1453359	2.195000e+00	-5.403622e+01	-9.655417e-01	0	0
1455313	2.195148e+00	-6.203485e+01	-2.440633e-01	0	0
1457266	2.195852e+00	-5.894363e+01	-2.526409e-01	0	0
1459219	2.195000e+00	-6.728307e+01	-2.404877e-01	0	0
1461172	2.195148e+00	-7.949843e+01	-2.435939e-01	0	0
1463125	2.196000e+00	-8.129173e+01	-2.426113e-01	0	0
1465078	2.195852e+00	-7.596629e+01	-2.427241e-01	0	0
1467031	2.195000e+00	-7.665277e+01	-2.425430e-01	0	0
1468984	2.195000e+00	-6.573160e+01	-2.424405e-01	0	0
1470938	2.195000e+00	-5.200900e+01	-2.423166e-01	0	0
1472891	2.195000e+00	-4.485352e+01	-2.421982e-01	0	0
1474844	2.195000e+00	-5.283458e+01	-2.420781e-01	0	0
1476797	2.195000e+00	-5.841015e+01	-2.419582e-01	0	0
1478750	2.195148e+00	-6.726870e+01	-2.418381e-01	0	0
1480703	2.195852e+00	-6.247238e+01	-2.417177e-01	0	0
1482656	2.195000e+00	-7.242623e+01	-2.415971e-01	0	0
1484609	2.195000e+00	-7.526893e+01	-2.414764e-01	0	0
1486563	2.195000e+00	-6.763819e+01	-2.413554e-01	0	0
1488516	2.195000e+00	-5.913521e+01	-2.412342e-01	0	0
1490469	2.195000e+00	-6.458282e+01	-2.411129e-01	0	0
1492422	2.195000e+00	-5.754160e+01	-2.409914e-01	0	0
1494375	2.195000e+00	-6.188919e+01	-2.408696e-01	0	0
1496328	2.195000e+00	-6.878102e+01	-2.407477e-01	0	0
1498281	2.195000e+00	-7.199402e+01	-2.406256e-01	0	0
1500234	2.195000e+00	-8.202620e+01	-2.405033e-01	0	0
1502188	2.195000e+00	-8.663948e+01	-2.403807e-01	0	0
1504141	2.195000e+00	-9.601439e+01	-2.402580e-01	0	0
1506094	2.195000e+00	-8.025176e+01	-2.401351e-01	0	0
1508047	2.195000e+00	-8.094662e+01	-2.400120e-01	0	0
1510000	2.195000e+00	-7.596911e+01	-2.398887e-01	0	0
1511953	2.195000e+00	-6.625589e+01	-2.397652e-01	0	0
1513906	2.195000e+00	-7.974000e+01	-2.396415e-01	0	0
1515859	2.195000e+00	-7.799085e+01	-2.395176e-01	0	0
1517813	2.195000e+00	-8.044917e+01	-2.393935e-01	0	0
1519766	2.195000e+00	-8.327712e+01	-2.392692e-01	0	0
1521719	2.195000e+00	-8.978444e+01	-2.391447e-01	0	0
1523672	2.195000e+00	-8.982072e+01	-2.390200e-01	0	0
1525625	2.195000e+00	-6.973356e+01	-2.388952e-01	0	0
1527578	2.195000e+00	-8.135099e+01	-2.387701e-01	0	0
1529531	2.195000e+00	-7.074068e+01	-2.386451e-01	0	0
1531484	2.195000e+00	-7.529854e+01	-2.385186e-01	0	0
1533438	2.195000e+00	-7.477306e+01	-2.383967e-01	0	0
1535391	2.195000e+00	-7.328152e+01	-2.382567e-01	0	0
1537344	2.195000e+00	-7.654809e+01	-2.381833e-01	0	0
1539297	2.195000e+00	-8.412647e+01	-2.378607e-01	0	0
1541250	2.195000e+00	-1.015903e+02	-2.384669e-01	0	0
1543203	2.195000e+00	-9.483910e+01	-2.356061e-01	0	0
1545156	2.195000e+00	-8.674004e+01	-2.456827e-01	0	0
1547109	2.195000e+00	-8.449536e+01	-2.074786e-01	0	0
1549063	2.195000e+00	-8.136195e+01	-3.541575e-01	0	0
1551016	2.195000e+00	-7.751402e+01	-1.702914e+00	0	0
1552969	2.195000e+00	-7.943661e+01	-2.723740e+00	0	0
1554922	2.195000e+00	-8.943149e+01	-2.971165e+00	0	0
1556875	2.195000e+00	-8.822668e+01	-2.291881e+00	0	0
1558828	2.195000e+00	-9.008877e+01	-8.534458e-01	0	0
1560781	2.195000e+00	-9.072508e+01	-2.037152e-01	0	0
1562734	2.195000e+00	-9.374552e+01	-2.444807e-01	0	0
1564688	2.195000e+00	-9.261923e+01	-2.372783e-01	0	0
1566641	2.195000e+00	-8.993912e+01	-2.245276e-01	0	0
1568594	2.195000e+00	-9.473385e+01	-2.819721e-01	0	0
1570547	2.195000e+00	-7.923934e+01	-5.734644e-02	0	0
1572500	2.195000e+00	-7.045043e+01	2.112358e+00	0	0
1574453	2.195000e+00	-7.588520e+01	4.274086e+00	0	0
1576406	2.195000e+00	-6.734600e+01	5.735942e+00	0	0
1578359	2.195000e+00	-6.783501e+01	5.789504e+00	0	0
1580313	2.195000e+00	-6.636017e+01	4.206404e+00	0	0
1582266	2.195000e+00	-5.746856e+01	1.522800e+00	0	0
1584219	2.195000e+00	-2.190476e+01	-3.461859e-01	0	0
1586172	2.195000e+00	2.297840e+01	-2.164541e-01	0	0
1588125	2.195000e+00	3.187566e+01	-1.975652e-01	0	0
1590078	2.195000e+00	6.006500e+01	-4.095448e-01	0	0
1592031	2.195000e+00	7.597785e+01	-2.859209e+00	0	0
1593984	2.195000e+00	7.154373e+01	-5.604072e+00	0	0
1595938	2.195000e+00	6.968173e+01	-6.474621e+00	0	0
1597891	2.195000e+00	6.949548e+01	-5.793167e+00	0	0
1599844	2.195000e+00	6.402080e+01	-3.682804e+00	0	0
1601797	2.195000e+00	6.060374e+01	-8.492813e-01	0	0
1603750	2.195000e+00	7.503155e+01	-2.209769e-01	0	0
1605703	2.195000e+00	9.796221e+01	-2.238648e-01	0	0
1607656	2.195000e+00	1.025618e+02	-2.848072e-01	0	0
1609609	2.195000e+00	1.056507e+02	1.488598e-01	0	0
1611563	2.195000e+00	1.330144e+02	2.463229e+00	0	0
1613516	2.195000e+00	1.253024e+02	2.692163e+00	0	0
1615469	2.195000e+00	1.193758e+02	1.668751e+00	0	0
1617422	2.195000e+00	1.427755e+02	2.075849e-01	0	0
1619375	2.195000e+00	1.428070e+02	-2.516295e-01	0	0
1621328	2.195000e+00	1.478376e+02	-2.274720e-01	0	0
1623281	2.195000e+00	1.604758e+02	-2.337760e-01	0	0
1625234	2.195000e+00	1.542618e+02	-2.319180e-01	0	0
1627188	2.195000e+00	1.548272e+02	-2.322470e-01	0	0
1629141	2.195000e+00	1.613881e+02	-2.319894e-01	0	0
1631094	2.195000e+00	1.527667e+02	-2.318892e-01	0	0
1633047	2.195000e+00	1.553080e+02	-2.317466e-01	0	0
1635000	2.195000e+00	1.265829e+02	-2.316152e-01	0	0
1636953	2.195000e+00	1.288787e+02	-2.314808e-01	0	0
1638906	2.195000e+00	1.153851e+02	-2.313470e-01	0	0
1640859	2.195000e+00	1.086099e+02	-2.312129e-01	0	0
1642813	2.195000e+00	9.642640e+01	-2.310786e-01	0	0
1644766	2.195000e+00	7.214474e+01	-2.309443e-01	0	0
1646719	2.195000e+00	6.327297e+01	-2.308100e-01	0	0
1648672	2.195000e+00	3.974092e+01	-2.306755e-01	0	0
1650625	2.195000e+00	2.491484e+01	-2.305409e-01	0	0
1652578	2.195000e+00	1.108566e+01	-2.304062e-01	0	0
1654531	2.195000e+00	-1.213563e+01	-2.302715e-01	0	0
1656484	2.195000e+00	-3.023191e+01	-2.301361e-01	0	0
1658438	2.195000e+00	-4.710421e+01	-2.300028e-01	0	0
1660391	2.195000e+00	-7.179922e+01	-2.298610e-01	0	0
1662344	2.195000e+00	-8.631673e+01	-2.297504e-01	0	0
1664297	2.195000e+00	-9.690823e+01	-2.295232e-01	0	0
1666250	2.195000e+00	-9.170805e+01	-2.297408e-01	0	0
1668203	2.194846e+00	-9.177485e+01	-2.326123e-01	0	0
1670156	2.194000e+00	-9.289456e+01	-2.341387e-01	0	0
1672109	2.194000e+00	-1.005423e+02	-2.331543e-01	0	0
1674063	2.194000e+00	-1.083023e+02	-2.303863e-01	0	0
1676016	2.194000e+00	-1.174592e+02	-2.286904e-01	0	0
1677969	2.194154e+00	-1.338042e+02	-2.286697e-01	0	0
1679922	2.194846e+00	-1.444220e+02	-2.285026e-01	0	0
1681875	2.194000e+00	-1.341395e+02	-2.283746e-01	0	0
1683828	2.194000e+00	-1.422789e+02	-2.282360e-01	0	0
1685781	2.194154e+00	-1.383356e+02	-2.281001e-01	0	0
1687734	2.195000e+00	-1.312398e+02	-2.279633e-01	0	0
1689688	2.194846e+00	-1.230804e+02	-2.278266e-01	0	0
1691641	2.194000e+00	-1.240991e+02	-2.276898e-01	0	0
1693594	2.194000e+00	-1.354980e+02	-2.275528e-01	0	0
1695547	2.194000e+00	-1.304382e+02	-2.274158e-01	0	0
1697500	2.194000e+00	-1.473297e+02	-2.272787e-01	0	0
1699453	2.194000e+00	-1.461823e+02	-2.271415e-01	0	0
1701406	2.194000e+00	-1.521694e+02	-2.270041e-01	0	0
1703359	2.194000e+00	-1.663906e+02	-2.268667e-01	0	0
1705313	2.194000e+00	-1.503791e+02	-2.267291e-01	0	0
1707266	2.194155e+00	-1.491995e+02	-2.265914e-01	0	0
1709219	2.194845e+00	-1.456014e+02	-2.264536e-01	0	0
1711172	2.194000e+00	-1.401072e+02	-2.263158e-01	0	0
1713125	2.194000e+00	-1.432860e+02	-2.261778e-01	0	0
1715078	2.194000e+00	-1.502103e+02	-2.260397e-01	0	0
1717031	2.194000e+00	-1.452370e+02	-2.259016e-01	0	0
1718984	2.194000e+00	-1.525137e+02	-2.257633e-01	0	0
1720938	2.194000e+00	-1.558471e+02	-2.256248e-01	0	0
1722891	2.194000e+00	-1.737434e+02	-2.254863e-01	0	0
1724844	2.194000e+00	-1.687155e+02	-2.253477e-01	0	0
1726797	2.194000e+00	-1.462985e+02	-2.252090e-01	0	0
1728750	2.194000e+00	-1.557086e+02	-2.250702e-01	0	0
1730703	2.194000e+00	-1.455998e+02	-2.249313e-01	0	0
1732656	2.194000e+00	-1.251277e+02	-2.247923e-01	0	0
1734609	2.194000e+00	-1.349331e+02	-2.246532e-01	0	0
1736563	2.194000e+00	-1.505995e+02	-2.245139e-01	0	0
1738516	2.194000e+00	-1.987147e+02	-2.243746e-01	0	0
1740469	2.194000e+00	-2.373122e+02	-2.242351e-01	0	0
1742422	2.194000e+00	-2.523029e+02	-2.240956e-01	0	0
1744375	2.194000e+00	-2.452934e+02	-2.239560e-01	0	0
1746328	2.194000e+00	-2.039376e+02	-2.238162e-01	0	0
1748281	2.194000e+00	-1.164180e+02	-2.236764e-01	0	0
1750234	2.194000e+00	-3.597259e+01	-2.235364e-01	0	0
1752188	2.194000e+00	5.763893e+01	-2.233963e-01	0	0
1754141	2.194000e+00	1.509032e+02	-2.232561e-01	0	0
1756094	2.194000e+00	2.961040e+02	-2.231159e-01	0	0
1758047	2.194000e+00	5.495161e+02	-2.229755e-01	0	0
1760000	2.194000e+00	8.176019e+02	-2.228350e-01	0	0
1761953	2.194000e+00	1.073880e+03	-2.226945e-01	0	0
1763906	2.194000e+00	1.357926e+03	-2.225538e-01	0	0
1765859	2.194000e+00	1.637425e+03	-2.224129e-01	0	0
1767813	2.194000e+00	1.843253e+03	-2.222723e-01	0	0
1769766	2.194000e+00	1.885725e+03	-2.221302e-01	0	0
1771719	2.194000e+00	1.774577e+03	-2.219930e-01	0	0
1773672	2.194000e+00	1.561326e+03	-2.218374e-01	0	0
1775625	2.194000e+00	1.213778e+03	-2.217499e-01	0	0
1777578	2.194000e+00	9.833682e+02	-2.214077e-01	0	0
1779531	2.194000e+00	7.642249e+02	-2.220156e-01	0	0
1781484	2.194000e+00	5.896930e+02	-2.183627e-01	0	0
1783438	2.194000e+00	2.665609e+02	5.601702e-02	0	0
1785391	2.194000e+00	-8.771985e+01	6.259094e-01	0	0
1787344	2.194000e+00	-2.156098e+02	4.367534e-01	0	0
1789297	2.194000e+00	-2.515000e+02	4.598910e-02	0	0
1791250	2.194000e+00	-2.329154e+02	-2.388956e-01	0	0
1793203	2.194000e+00	-2.065826e+02	-2.155475e-01	0	0
1795156	2.194000e+00	-1.838819e+02	-2.215009e-01	0	0
1797109	2.194000e+00	-1.418515e+02	-2.201809e-01	0	0
1799063	2.194000e+00	-1.156356e+02	-2.186479e-01	0	0
1801016	2.194000e+00	-9.587230e+01	-2.252482e-01	0	0
1802969	2.194000e+00	-7.069801e+01	-1.995255e-01	0	0
1804922	2.194000e+00	-6.414460e+01	-2.990096e-01	0	0
1806875	2.194000e+00	-5.763674e+01	-1.522455e+00	0	0
1808828	2.194000e+00	-5.252535e+01	-3.068436e+00	0	0
1810781	2.194000e+00	-3.977996e+01	-3.231438e+00	0	0
1812734	2.194000e+00	-6.327303e+01	-2.013375e+00	0	0
1814688	2.194000e+00	-6.714500e+01	-8.008743e-02	0	0
1816641	2.194000e+00	-7.358162e+01	-2.609684e-01	0	0
1818594	2.194000e+00	-8.060801e+01	-1.899996e-01	0	0
1820547	2.194000e+00	-8.339622e+01	-2.904664e-01	0	0
1822500	2.194000e+00	-8.709343e+01	5.264356e-02	0	0
1824453	2.194000e+00	-9.578513e+01	3.215492e+00	0	0
1826406	2.194000e+00	-9.259176e+01	6.023548e+00	0	0
1828359	2.194000e+00	-8.304273e+01	6.305529e+00	0	0
1830313	2.194000e+00	-7.508270e+01	3.243222e+00	0	0
1832266	2.194000e+00	-6.827292e+01	-5.517086e-01	0	0
1834219	2.194000e+00	-6.985215e+01	-5.439933e-01	0	0
1836172	2.194000e+00	-7.837049e+01	-1.462129e+00	0	0
1838125	2.194000e+00	-6.742597e+01	-6.051412e+00	0	0
1840078	2.194000e+00	-7.357188e+01	-8.882113e+00	0	0
1842031	2.194000e+00	-8.394560e+01	-9.288331e+00	0	0
1843984	2.194000e+00	-8.620882e+01	-7.232031e+00	0	0
1845938	2.194000e+00	-8.456223e+01	-2.532265e+00	0	0
1847891	2.194000e+00	-6.613423e+01	-4.970861e-02	0	0
1849844	2.194000e+00	-4.942207e+01	-3.504793e-01	0	0
1851797	2.194000e+00	-4.243988e+01	6.349264e-01	0	0
1853750	2.194000e+00	-5.037885e+01	5.682541e+00	0	0
1855703	2.194000e+00	-6.072185e+01	8.384925e+00	0	0
1857656	2.194000e+00	-5.245274e+01	8.857846e+00	0	0
1859609	2.194000e+00	-5.708362e+01	7.172582e+00	0	0
1861563	2.194000e+00	-6.458133e+01	3.524080e+00	0	0
1863516	2.194000e+00	-5.214516e+01	-4.990727e-01	0	0
1865469	2.194000e+00	-3.889851e+01	-1.340434e-01	0	0
1867422	2.194000e+00	-4.130383e+01	-2.594654e-01	0	0
1869375	2.194000e+00	-2.377762e+01	-1.708258e+00	0	0
1871328	2.194000e+00	-1.384510e+01	-5.387610e+00	0	0
1873281	2.194000e+00	-2.189660e+01	-6.705506e+00	0	0
1875234	2.194000e+00	-3.109550e+01	-5.832665e+00	0	0
1877188	2.194000e+00	-3.532939e+01	-3.705258e+00	0	0
1879141	2.194000e+00	-4.016039e+01	-1.498461e+00	0	0
1881094	2.194000e+00	-3.646532e+01	-1.272876e-01	0	0
1883047	2.194000e+00	-3.009905e+01	-2.369904e-01	0	0
1885000	2.194000e+00	-1.645163e+01	-2.074098e-01	0	0
1886953	2.194000e+00	-1.134390e+01	-2.151492e-01	0	0
1888906	2.194000e+00	-4.710474e+00	-2.128888e-01	0	0
1890859	2.194000e+00	7.296469e+00	-2.133076e-01	0	0
1892813	2.194000e+00	1.121952e+00	-2.130083e-01	0	0
1894766	2.194000e+00	4.720831e+00	-2.129015e-01	0	0
1896719	2.194000e+00	1.108994e+01	-2.127430e-01	0	0
1898672	2.194000e+00	4.382951e+00	-2.125981e-01	0	0
1900625	2.194000e+00	-7.281421e+00	-2.124495e-01	0	0
1902578	2.194000e+00	3.054316e+00	-2.123017e-01	0	0
1904531	2.194000e+00	7.065018e+00	-2.121536e-01	0	0
1906484	2.194000e+00	1.883428e+01	-2.120055e-01	0	0
1908438	2.194000e+00	2.244719e+01	-2.118571e-01	0	0
1910391	2.194000e+00	3.032986e+01	-2.117088e-01	0	0
1912344	2.194000e+00	4.260229e+01	-2.115603e-01	0	0
1914297	2.194000e+00	3.881530e+01	-2.114117e-01	0	0
1916250	2.194000e+00	3.082133e+01	-2.112631e-01	0	0
1918203	2.194000e+00	3.653795e+01	-2.111143e-01	0	0
1920156	2.194000e+00	3.439816e+01	-2.109654e-01	0	0
1922109	2.194000e+00	3.693562e+01	-2.108165e-01	0	0
1924063	2.194000e+00	4.417188e+01	-2.106673e-01	0	0
1926016	2.194000e+00	5.996930e+01	-2.105181e-01	0	0
1927969	2.194000e+00	6.691363e+01	-2.103689e-01	0	0
1929922	2.194000e+00	8.022358e+01	-2.102195e-01	0	0
1931875	2.194000e+00	8.807817e+01	-2.100700e-01	0	0
1933828	2.194000e+00	9.618063e+01	-2.099204e-01	0	0
1935781	2.194000e+00	1.005858e+02	-2.097708e-01	0	0
1937734	2.194000e+00	9.676182e+01	-2.096210e-01	0	0
1939688	2.194000e+00	1.004235e+02	-2.094710e-01	0	0
1941641	2.194000e+00	8.395189e+01	-2.093211e-01	0	0
1943594	2.194000e+00	9.884360e+01	-2.091710e-01	0	0
1945547	2.194000e+00	1.118145e+02	-2.090208e-01	0	0
1947500	2.194000e+00	1.218387e+02	-2.088705e-01	0	0
1949453	2.194000e+00	1.406418e+02	-2.087202e-01	0	0
1951406	2.194000e+00	1.605607e+02	-2.085697e-01	0	0
1953359	2.194000e+00	1.554519e+02	-2.084191e-01	0	0
1955313	2.194000e+00	1.556141e+02	-2.082683e-01	0	0
1957266	2.194000e+00	1.550542e+02	-2.081176e-01	0	0
1959219	2.194000e+00	1.508797e+02	-2.079667e-01	0	0
1961172	2.194000e+00	1.645711e+02	-2.078157e-01	0	0
1963125	2.194000e+00	1.752851e+02	-2.076646e-01	0	0
1965078	2.194000e+00	1.980732e+02	-2.075135e-01	0	0
1967031	2.194000e+00	2.139150e+02	-2.073622e-01	0	0
1968984	2.194000e+00	2.286983e+02	-2.072108e-01	0	0
1970938	2.194000e+00	2.457016e+02	-2.070592e-01	0	0
1972891	2.194000e+00	2.603520e+02	-2.069077e-01	0	0
1974844	2.194000e+00	2.623886e+02	-2.067560e-01	0	0
1976797	2.194000e+00	2.762459e+02	-2.066042e-01	0	0
1978750	2.194000e+00	2.734000e+02	-2.064523e-01	0	0
1980703	2.194000e+00	2.770940e+02	-2.063003e-01	0	0
1982656	2.194000e+00	2.860775e+02	-2.061483e-01	0	0
1984609	2.194000e+00	2.978862e+02	-2.059961e-01	0	0
1986563	2.194000e+00	3.173606e+02	-2.058437e-01	0	0
1988516	2.194000e+00	3.417909e+02	-2.056913e-01	0	0
1990469	2.194000e+00	3.603775e+02	-2.055389e-01	0	0
1992422	2.194000e+00	3.660228e+02	-2.053863e-01	0	0
1994375	2.194000e+00	3.675213e+02	-2.052336e-01	0	0
1996328	2.194000e+00	3.763979e+02	-2.050808e-01	0	0
1998281	2.194000e+00	3.900859e+02	-2.049280e-01	0	0
2000234	2.194000e+00	3.963849e+02	-2.047750e-01	0	0
2002188	2.194000e+00	4.087789e+02	-2.046218e-01	0	0
2004141	2.194000e+00	4.274150e+02	-2.044687e-01	0	0
2006094	2.194000e+00	4.603400e+02	-2.043154e-01	0	0
2008047	2.194000e+00	4.751729e+02	-2.041620e-01	0	0
2010000	2.194000e+00	4.927444e+02	-2.040086e-01	0	0
2011953	2.194000e+00	5.017080e+02	-2.038550e-01	0	0
2013906	2.194000e+00	5.036082e+02	-2.037013e-01	0	0
2015859	2.194000e+00	5.077256e+02	-2.035476e-01	0	0
2017813	2.194000e+00	5.021621e+02	-2.033936e-01	0	0
2019766	2.194000e+00	5.119627e+02	-2.032396e-01	0	0
2021719	2.194000e+00	5.162570e+02	-2.030856e-01	0	0
2023672	2.194000e+00	5.264110e+02	-2.029314e-01	0	0
2025625	2.194000e+00	5.317244e+02	-2.027771e-01	0	0
2027578	2.194000e+00	5.196644e+02	-2.026228e-01	0	0
2029531	2.194000e+00	5.266213e+02	-2.024683e-01	0	0
2031484	2.194000e+00	5.233928e+02	-2.023138e-01	0	0
2033438	2.194000e+00	4.992861e+02	-2.021590e-01	0	0
2035391	2.194000e+00	4.751930e+02	-2.020043e-01	0	0
2037344	2.194000e+00	4.642537e+02	-2.018494e-01	0	0
2039297	2.194000e+00	4.420242e+02	-2.016945e-01	0	0
2041250	2.194000e+00	4.063042e+02	-2.015394e-01	0	0
2043203	2.194000e+00	3.720986e+02	-2.013843e-01	0	0
2045156	2.194000e+00	3.581038e+02	-2.012290e-01	0	0
2047109	2.194000e+00	3.229584e+02	-2.010737e-01	0	0
2049063	2.194000e+00	3.053369e+02	-2.009181e-01	0	0
2051016	2.194000e+00	2.852187e+02	-2.007626e-01	0	0
2052969	2.194000e+00	2.562300e+02	-2.006069e-01	0	0
2054922	2.194000e+00	2.269397e+02	-2.004512e-01	0	0
2056875	2.194000e+00	1.963783e+02	-2.002954e-01	0	0
2058828	2.194000e+00	1.723516e+02	-2.001394e-01	0	0
2060781	2.194000e+00	1.396944e+02	-1.999834e-01	0	0
2062734	2.194000e+00	1.135206e+02	-1.998272e-01	0	0
2064688	2.194000e+00	9.665907e+01	-1.996709e-01	0	0
2066641	2.194000e+00	8.550177e+01	-1.995146e-01	0	0
2068594	2.194000e+00	7.171878e+01	-1.993582e-01	0	0
2070547	2.194000e+00	5.903712e+01	-1.992016e-01	0	0
2072500	2.194000e+00	4.451133e+01	-1.990450e-01	0	0
2074453	2.194000e+00	2.660156e+01	-1.988883e-01	0	0
2076406	2.194000e+00	1.048860e+01	-1.987315e-01	0	0
2078359	2.194000e+00	-2.903839e+00	-1.985745e-01	0	0
2080313	2.194000e+00	-2.261811e+01	-1.984175e-01	0	0
2082266	2.194000e+00	-3.009191e+01	-1.982603e-01	0	0
2084219	2.194000e+00	-2.952073e+01	-1.981031e-01	0	0
2086172	2.194000e+00	-3.067150e+01	-1.979458e-01	0	0
2088125	2.194000e+00	-3.196178e+01	-1.977884e-01	0	0
2090078	2.194000e+00	-2.183925e+01	-1.976309e-01	0	0
2092031	2.194000e+00	-2.887290e+01	-1.974733e-01	0	0
2093984	2.194000e+00	-3.993658e+01	-1.973156e-01	0	0
2095938	2.194000e+00	-3.828324e+01	-1.971577e-01	0	0
2097891	2.194000e+00	-4.859016e+01	-1.969998e-01	0	0
2099844	2.194000e+00	-7.080770e+01	-1.968418e-01	0	0
2101797	2.194000e+00	-7.434063e+01	-1.966837e-01	0	0
2103750	2.194000e+00	-8.517373e+01	-1.965255e-01	0	0
2105703	2.194000e+00	-7.390403e+01	-1.963672e-01	0	0
2107656	2.194000e+00	-6.301485e+01	-1.962089e-01	0	0
2109609	2.194000e+00	-6.395434e+01	-1.960504e-01	0	0
2111563	2.194000e+00	-6.553601e+01	-1.958917e-01	0	0
2113516	2.194000e+00	-7.659883e+01	-1.957330e-01	0	0
2115469	2.194000e+00	-7.531815e+01	-1.955743e-01	0	0
2117422	2.194000e+00	-8.255883e+01	-1.954154e-01	0	0
2119375	2.194000e+00	-8.678802e+01	-1.952564e-01	0	0
2121328	2.194000e+00	-9.531945e+01	-1.950974e-01	0	0
2123281	2.194000e+00	-9.516191e+01	-1.949382e-01	0	0
2125234	2.194000e+00	-8.148781e+01	-1.947789e-01	0	0
2127188	2.194000e+00	-7.881690e+01	-1.946195e-01	0	0
2129141	2.194000e+00	-7.202704e+01	-1.944601e-01	0	0
2131094	2.194000e+00	-7.216054e+01	-1.943004e-01	0	0
2133047	2.194000e+00	-6.763747e+01	-1.941411e-01	0	0
2135000	2.194000e+00	-8.031666e+01	-1.939802e-01	0	0
2136953	2.194000e+00	-8.269100e+01	-1.938246e-01	0	0
2138906	2.194000e+00	-8.798199e+01	-1.936489e-01	0	0
2140859	2.194000e+00	-9.170211e+01	-1.935478e-01	0	0
2142813	2.194000e+00	-9.114022e+01	-1.931670e-01	0	0
2144766	2.194000e+00	-9.461011e+01	-1.938306e-01	0	0
2146719	2.194000e+00	-8.842294e+01	-1.905958e-01	0	0
2148672	2.194000e+00	-9.467473e+01	-2.023167e-01	0	0
2150625	2.194000e+00	-8.175112e+01	-2.933977e-01	0	0
2152578	2.194000e+00	-7.984706e+01	-3.612274e-01	0	0
2154531	2.194000e+00	-8.379421e+01	-4.155121e-01	0	0
2156484	2.194000e+00	-7.946655e+01	-4.521081e-01	0	0
2158438	2.194000e+00	-8.764792e+01	-4.671624e-01	0	0
2160391	2.194000e+00	-9.793388e+01	-4.391430e-01	0	0
2162344	2.194000e+00	-9.697087e+01	-3.377857e-01	0	0
2164297	2.194000e+00	-9.367895e+01	-2.008777e-01	0	0
2166250	2.194000e+00	-8.200940e+01	-1.923523e-01	0	0
2168203	2.194000e+00	-6.781056e+01	-1.909985e-01	0	0
2170156	2.194000e+00	-5.690442e+01	-1.911566e-01	0	0
2172109	2.194000e+00	-6.144623e+01	-1.909094e-01	0	0
2174063	2.194000e+00	-5.847696e+01	-1.907706e-01	0	0
2176016	2.194000e+00	-7.387667e+01	-1.906027e-01	0	0
2177969	2.194000e+00	-7.042816e+01	-1.904421e-01	0	0
2179922	2.194000e+00	-6.667255e+01	-1.902811e-01	0	0
2181875	2.194000e+00	-8.009206e+01	-1.901141e-01	0	0
2183828	2.194000e+00	-7.546549e+01	-1.899706e-01	0	0
2185781	2.194000e+00	-7.492200e+01	-1.897388e-01	0	0
2187734	2.194000e+00	-7.739219e+01	-1.898361e-01	0	0
2189688	2.194000e+00	-5.873214e+01	-1.884250e-01	0	0
2191641	2.194000e+00	-5.256719e+01	-1.018698e-01	0	0
2193594	2.194000e+00	-5.775412e+01	1.367186e-01	0	0
2195547	2.194000e+00	-5.469318e+01	3.040654e-01	0	0
2197500	2.194000e+00	-6.710483e+01	4.197286e-01	0	0
2199453	2.194000e+00	-7.396555e+01	4.701703e-01	0	0
2201406	2.194000e+00	-7.207149e+01	4.525822e-01	0	0
2203359	2.194000e+00	-7.021608e+01	3.986306e-01	0	0
2205313	2.194000e+00	-6.900382e+01	3.389369e-01	0	0
2207266	2.194000e+00	-5.185560e+01	2.729239e-01	0	0
2209219	2.194000e+00	-4.631920e+01	2.032183e-01	0	0
2211172	2.194000e+00	-3.294661e+01	1.315700e-01	0	0
2213125	2.194000e+00	-4.426415e+01	6.005477e-02	0	0
2215078	2.194000e+00	-5.511039e+01	-9.648906e-03	0	0
2217031	2.194000e+00	-4.488788e+01	-7.460287e-02	0	0
2218984	2.194000e+00	-4.693408e+01	-1.375782e-01	0	0
2220938	2.194000e+00	-5.573707e+01	-1.895668e-01	0	0
2222891	2.194000e+00	-6.109918e+01	-1.857885e-01	0	0
2224844	2.194000e+00	-5.126050e+01	-1.867706e-01	0	0
2226797	2.194000e+00	-5.480884e+01	-1.862992e-01	0	0
2228750	2.194000e+00	-3.753223e+01	-1.862171e-01	0	0
2230703	2.194000e+00	-3.663350e+01	-1.860306e-01	0	0
2232656	2.194000e+00	-4.917311e+01	-1.858720e-01	0	0
2234609	2.194000e+00	-4.469723e+01	-1.857058e-01	0	0
2236563	2.194000e+00	-4.924816e+01	-1.855414e-01	0	0
2238516	2.194000e+00	-5.935817e+01	-1.853765e-01	0	0
2240469	2.194000e+00	-5.979511e+01	-1.852116e-01	0	0
2242422	2.194000e+00	-6.051043e+01	-1.850466e-01	0	0
2244375	2.194000e+00	-5.934718e+01	-1.848814e-01	0	0
2246328	2.194000e+00	-5.812479e+01	-1.847162e-01	0	0
2248281	2.194000e+00	-5.145744e+01	-1.845509e-01	0	0
2250234	2.194000e+00	-4.379738e+01	-1.843856e-01	0	0
2252188	2.194000e+00	-4.942051e+01	-1.842200e-01	0	0
2254141	2.194000e+00	-4.259705e+01	-1.840544e-01	0	0
2256094	2.194000e+00	-5.069411e+01	-1.838887e-01	0	0
2258047	2.194000e+00	-5.226646e+01	-1.837229e-01	0	0
2260000	2.194000e+00	-6.142022e+01	-1.835571e-01	0	0
2261953	2.194000e+00	-7.062785e+01	-1.833911e-01	0	0
2263906	2.194000e+00	-7.073398e+01	-1.832251e-01	0	0
2265859	2.194000e+00	-7.239656e+01	-1.830589e-01	0	0
2267813	2.194000e+00	-6.067195e+01	-1.828926e-01	0	0
2269766	2.194000e+00	-5.352287e+01	-1.827263e-01	0	0
2271719	2.194000e+00	-5.062352e+01	-1.825598e-01	0	0
2273672	2.194000e+00	-5.366246e+01	-1.823933e-01	0	0
2275625	2.194000e+00	-5.428910e+01	-1.822267e-01	0	0
2277578	2.194000e+00	-5.442335e+01	-1.820600e-01	0	0
2279531	2.194000e+00	-6.555778e+01	-1.818932e-01	0	0
2281484	2.194000e+00	-7.051401e+01	-1.817262e-01	0	0
2283438	2.194000e+00	-7.030582e+01	-1.815592e-01	0	0
2285391	2.194000e+00	-6.995119e+01	-1.813921e-01	0	0
2287344	2.194000e+00	-5.355276e+01	-1.812249e-01	0	0
2289297	2.194000e+00	-5.083008e+01	-1.810576e-01	0	0
2291250	2.194000e+00	-5.066484e+01	-1.808904e-01	0	0
2293203	2.194000e+00	-4.356985e+01	-1.807221e-01	0	0
2295156	2.194000e+00	-5.796887e+01	-1.805577e-01	0	0
2297109	2.194000e+00	-7.080073e+01	-1.803782e-01	0	0
2299063	2.194000e+00	-6.829784e+01	-1.802546e-01	0	0
2301016	2.194000e+00	-7.442028e+01	-1.799218e-01	0	0
2302969	2.194000e+00	-8.297932e+01	-1.803695e-01	0	0
2304922	2.194000e+00	-6.808656e+01	-1.779038e-01	0	0
2306875	2.194000e+00	-7.546554e+01	-1.867384e-01	0	0
2308828	2.194000e+00	-6.549219e+01	-2.859027e-01	0	0
2310781	2.194000e+00	-5.899101e+01	-4.384348e-01	0	0
2312734	2.194000e+00	-5.563674e+01	-5.720328e-01	0	0
2314688	2.194000e+00	-7.104806e+01	-6.903044e-01	0	0
2316641	2.194000e+00	-9.350615e+01	-7.878803e-01	0	0
2318594	2.194000e+00	-7.556675e+01	-8.626268e-01	0	0
2320547	2.194000e+00	-8.424713e+01	-9.174255e-01	0	0
2322500	2.194000e+00	-8.292387e+01	-9.570812e-01	0	0
2324453	2.194000e+00	-8.258281e+01	-9.822181e-01	0	0
2326406	2.194000e+00	-8.374684e+01	-9.927666e-01	0	0
2328359	2.194000e+00	-6.689156e+01	-9.886968e-01	0	0
2330313	2.194000e+00	-5.749736e+01	-9.699515e-01	0	0
2332266	2.194000e+00	-6.121655e+01	-9.364672e-01	0	0
2334219	2.194000e+00	-6.088056e+01	-8.881633e-01	0	0
2336172	2.194000e+00	-7.117115e+01	-8.249500e-01	0	0
2338125	2.194000e+00	-8.310282e+01	-7.467891e-01	0	0
2340078	2.194000e+00	-7.938760e+01	-6.534442e-01	0	0
2342031	2.194000e+00	-8.882745e+01	-5.435007e-01	0	0
2343984	2.194000e+00	-8.459268e+01	-4.167086e-01	0	0
2345938	2.194000e+00	-8.107372e+01	-2.731982e-01	0	0
2347891	2.194000e+00	-6.887604e+01	-1.686025e-01	0	0
2349844	2.194000e+00	-5.702871e+01	-1.778061e-01	0	0
2351797	2.194000e+00	-6.616393e+01	-1.751242e-01	0	0
2353750	2.194000e+00	-6.627875e+01	-1.756268e-01	0	0
2355703	2.194000e+00	-6.262569e+01	-1.752760e-01	0	0
2357656	2.194000e+00	-5.644146e+01	-1.751538e-01	0	0
2359609	2.194000e+00	-5.922890e+01	-1.749702e-01	0	0
2361563	2.194000e+00	-4.122654e+01	-1.748029e-01	0	0
2363516	2.194000e+00	3.376755e-02	-1.746311e-01	0	0
2365469	2.194000e+00	3.651945e+01	-1.744605e-01	0	0
2367422	2.194000e+00	4.279084e+01	-1.742894e-01	0	0
2369375	2.194000e+00	6.549695e+01	-1.741183e-01	0	0
2371328	2.194000e+00	7.320907e+01	-1.739471e-01	0	0
2373281	2.194000e+00	7.630107e+01	-1.737759e-01	0	0
2375234	2.194000e+00	6.641633e+01	-1.736043e-01	0	0
2377188	2.194000e+00	6.850258e+01	-1.734334e-01	0	0
2379141	2.194000e+00	6.583344e+01	-1.732593e-01	0	0
2381094	2.194000e+00	6.092286e+01	-1.730972e-01	0	0
2383047	2.194000e+00	7.241932e+01	-1.728899e-01	0	0
2385000	2.194000e+00	8.853522e+01	-1.728506e-01	0	0
2386953	2.194175e+00	9.991603e+01	-1.721841e-01	0	0
2388906	2.194825e+00	1.117801e+02	-1.738580e-01	0	0
2390859	2.194000e+00	1.380423e+02	-1.664290e-01	0	0
2392813	2.194176e+00	1.370153e+02	-8.285873e-02	0	0
2394766	2.195000e+00	1.333979e+02	5.044901e-02	0	0
2396719	2.194824e+00	1.471451e+02	1.622375e-01	0	0
2398672	2.194000e+00	1.652076e+02	2.585018e-01	0	0
2400625	2.194176e+00	1.512275e+02	3.370745e-01	0	0
2402578	2.194824e+00	1.616826e+02	4.021082e-01	0	0
2404531	2.194176e+00	1.634245e+02	4.564805e-01	0	0
2406484	2.195000e+00	1.650392e+02	5.001435e-01	0	0
2408438	2.195000e+00	1.688916e+02	5.333405e-01	0	0
2410391	2.195000e+00	1.751300e+02	5.561947e-01	0	0
2412344	2.195000e+00	1.584926e+02	5.688928e-01	0	0
2414297	2.195000e+00	1.452886e+02	5.716365e-01	0	0
2416250	2.195000e+00	1.347728e+02	5.648826e-01	0	0
2418203	2.195000e+00	1.244636e+02	5.489874e-01	0	0
2420156	2.195000e+00	1.226541e+02	5.241679e-01	0	0
2422109	2.195000e+00	1.079043e+02	4.903211e-01	0	0
2424063	2.195000e+00	8.590543e+01	4.486414e-01	0	0
2426016	2.195000e+00	5.943460e+01	4.078616e-01	0	0
2427969	2.195000e+00	4.303057e+01	3.734005e-01	0	0
2429922	2.195000e+00	3.607482e+01	3.432542e-01	0	0
2431875	2.195000e+00	2.061655e+01	3.161755e-01	0	0
2433828	2.195000e+00	1.467082e-01	2.907130e-01	0	0
2435781	2.195000e+00	-1.392780e+01	2.654753e-01	0	0
2437734	2.195000e+00	-3.928860e+01	2.390357e-01	0	0
2439688	2.195000e+00	-5.266873e+01	2.100318e-01	0	0
2441641	2.195000e+00	-6.861420e+01	1.768519e-01	0	0
2443594	2.195000e+00	-7.515529e+01	1.359353e-01	0	0
2445547	2.195000e+00	-7.805742e+01	8.241560e-02	0	0
2447500	2.195000e+00	-8.048248e+01	1.527216e-02	0	0
2449453	2.195000e+00	-8.396529e+01	-7.306241e-02	0	0
2451406	2.195000e+00	-9.587123e+01	-1.621059e-01	0	0
2453359	2.195000e+00	-9.498882e+01	-1.659716e-01	0	0
2455313	2.195000e+00	-1.028108e+02	-1.666869e-01	0	0
2457266	2.195000e+00	-1.088249e+02	-1.662727e-01	0	0
2459219	2.195000e+00	-1.124960e+02	-1.661615e-01	0	0
2461172	2.195000e+00	-1.196888e+02	-1.659689e-01	0	0
2463125	2.195000e+00	-1.297954e+02	-1.657980e-01	0	0
2465078	2.195000e+00	-1.278642e+02	-1.656212e-01	0	0
2467031	2.195000e+00	-1.259645e+02	-1.654459e-01	0	0
2468984	2.195000e+00	-1.211651e+02	-1.652700e-01	0	0
2470938	2.195000e+00	-1.113350e+02	-1.650942e-01	0	0
2472891	2.195000e+00	-1.148873e+02	-1.649177e-01	0	0
2474844	2.195000e+00	-1.154098e+02	-1.647435e-01	0	0
2476797	2.195000e+00	-1.223602e+02	-1.645605e-01	0	0
2478750	2.195000e+00	-1.243199e+02	-1.644100e-01	0	0
2480703	2.195000e+00	-1.355056e+02	-1.641378e-01	0	0
2482656	2.195000e+00	-1.459251e+02	-1.643195e-01	0	0
2484609	2.195000e+00	-1.515321e+02	-1.628065e-01	0	0
2486563	2.195000e+00	-1.429927e+02	-1.680154e-01	0	0
2488516	2.195000e+00	-1.423624e+02	-2.581492e-01	0	0
2490469	2.195000e+00	-1.393881e+02	-4.406207e-01	0	0
2492422	2.195000e+00	-1.302576e+02	-5.760510e-01	0	0
2494375	2.195000e+00	-1.426201e+02	-6.760825e-01	0	0
2496328	2.195000e+00	-1.424595e+02	-7.320348e-01	0	0
2498281	2.195000e+00	-1.402570e+02	-7.441381e-01	0	0
2500234	2.195000e+00	-1.492209e+02	-7.340939e-01	0	0
2502188	2.195000e+00	-1.404303e+02	-7.202252e-01	0	0
2504141	2.195000e+00	-1.388685e+02	-7.007546e-01	0	0
2506094	2.195000e+00	-1.325352e+02	-6.761050e-01	0	0
2508047	2.195000e+00	-1.249037e+02	-6.463945e-01	0	0
2510000	2.195000e+00	-1.134582e+02	-6.118663e-01	0	0
2511953	2.195000e+00	-1.127894e+02	-5.727333e-01	0	0
2513906	2.195000e+00	-1.349827e+02	-5.292053e-01	0	0
2515859	2.195000e+00	-1.487077e+02	-4.815336e-01	0	0
2517813	2.195000e+00	-1.956733e+02	-4.297798e-01	0	0
2519766	2.195000e+00	-2.274667e+02	-3.746940e-01	0	0
2521719	2.195000e+00	-2.226108e+02	-3.146773e-01	0	0
2523672	2.195000e+00	-2.051233e+02	-2.566300e-01	0	0
2525625	2.195000e+00	-1.485392e+02	-1.752311e-01	0	0
2527578	2.195000e+00	-6.404464e+01	5.972133e-04	0	0
2529531	2.195000e+00	1.721874e+01	9.941766e-02	0	0
2531484	2.195000e+00	1.067197e+02	6.714918e-02	0	0
2533438	2.195000e+00	2.125277e+02	-7.280835e-02	0	0
2535391	2.195000e+00	3.937189e+02	-1.657342e-01	0	0
2537344	2.195180e+00	6.590286e+02	-1.573210e-01	0	0
2539297	2.195820e+00	9.258857e+02	-1.593483e-01	0	0
2541250	2.195000e+00	1.177051e+03	-1.585780e-01	0	0
2543203	2.195180e+00	1.452300e+03	-1.585572e-01	0	0
2545156	2.196000e+00	1.719076e+03	-1.583355e-01	0	0
2547109	2.196000e+00	1.890335e+03	-1.581676e-01	0	0
2549063	2.195820e+00	1.860904e+03	-1.579850e-01	0	0
2551016	2.195180e+00	1.747819e+03	-1.578062e-01	0	0
2552969	2.196000e+00	1.485619e+03	-1.576264e-01	0	0
2554922	2.196000e+00	1.137151e+03	-1.574468e-01	0	0
2556875	2.196000e+00	9.266007e+02	-1.572669e-01	0	0
2558828	2.196000e+00	7.283706e+02	-1.570870e-01	0	0
2560781	2.196000e+00	5.406038e+02	-1.569071e-01	0	0
2562734	2.196000e+00	1.821230e+02	-1.567270e-01	0	0
2564688	2.196000e+00	-1.317861e+02	-1.565467e-01	0	0
2566641	2.196000e+00	-2.151900e+02	-1.563665e-01	0	0
2568594	2.196000e+00	-2.340286e+02	-1.561862e-01	0	0
2570547	2.196000e+00	-2.034784e+02	-1.560057e-01	0	0
2572500	2.196000e+00	-1.842053e+02	-1.558252e-01	0	0
2574453	2.196000e+00	-1.739014e+02	-1.556446e-01	0	0
2576406	2.196000e+00	-1.421389e+02	-1.554639e-01	0	0
2578359	2.196000e+00	-1.169890e+02	-1.552832e-01	0	0
2580313	2.196000e+00	-8.878860e+01	-1.551022e-01	0	0
2582266	2.196000e+00	-7.428609e+01	-1.549213e-01	0	0
2584219	2.196000e+00	-5.347951e+01	-1.547402e-01	0	0
2586172	2.196000e+00	-3.641219e+01	-1.545591e-01	0	0
2588125	2.196000e+00	-3.749834e+01	-1.543776e-01	0	0
2590078	2.196000e+00	-3.382539e+01	-1.541974e-01	0	0
2592031	2.196000e+00	-4.408354e+01	-1.540121e-01	0	0
2593984	2.196000e+00	-4.753802e+01	-1.538452e-01	0	0
2595938	2.196000e+00	-5.862211e+01	-1.536087e-01	0	0
2597891	2.196000e+00	-6.784326e+01	-1.536318e-01	0	0
2599844	2.196000e+00	-8.160579e+01	-1.526860e-01	0	0
2601797	2.196000e+00	-9.234701e+01	-1.553557e-01	0	0
2603750	2.196000e+00	-8.772197e+01	-1.440774e-01	0	0
2605703	2.196000e+00	-7.150914e+01	-6.164792e-02	0	0
2607656	2.196000e+00	-7.534121e+01	1.233214e-02	0	0
2609609	2.196000e+00	-5.528055e+01	7.604172e-02	0	0
2611563	2.196000e+00	-4.794470e+01	1.076304e-01	0	0
2613516	2.196000e+00	-5.526197e+01	9.495314e-02	0	0
2615469	2.196000e+00	-5.265219e+01	4.480644e-02	0	0
2617422	2.196000e+00	-5.250026e+01	-4.787447e-02	0	0
2619375	2.196000e+00	-5.611282e+01	-1.502905e-01	0	0
2621328	2.196000e+00	-5.670599e+01	-1.500364e-01	0	0
2623281	2.196000e+00	-6.017303e+01	-1.514348e-01	0	0
2625234	2.196000e+00	-4.941978e+01	-1.508283e-01	0	0
2627188	2.196000e+00	-3.865794e+01	-1.507587e-01	0	0
2629141	2.196000e+00	-3.827486e+01	-1.505452e-01	0	0
2631094	2.196000e+00	-2.125657e+01	-1.503702e-01	0	0
2633047	2.196000e+00	-2.168414e+01	-1.501848e-01	0	0
2635000	2.196000e+00	-2.602106e+01	-1.500021e-01	0	0
2636953	2.196000e+00	-2.025587e+01	-1.498185e-01	0	0
2638906	2.196000e+00	-3.281951e+01	-1.496350e-01	0	0
2640859	2.196000e+00	-2.281235e+01	-1.494514e-01	0	0
2642813	2.196183e+00	-3.451817e+01	-1.492677e-01	0	0
2644766	2.196817e+00	-2.496210e+01	-1.490839e-01	0	0
2646719	2.196000e+00	-2.079202e+01	-1.489000e-01	0	0
2648672	2.196000e+00	-2.584506e+01	-1.487161e-01	0	0
2650625	2.196183e+00	-7.918630e+00	-1.485321e-01	0	0
2652578	2.197000e+00	-8.856481e+00	-1.483480e-01	0	0
2654531	2.196817e+00	-1.128581e+01	-1.481637e-01	0	0
2656484	2.196183e+00	-2.217184e+01	-1.479798e-01	0	0
2658438	2.197000e+00	-1.412202e+01	-1.477939e-01	0	0
2660391	2.197000e+00	-2.639974e+01	-1.476148e-01	0	0
2662344	2.197000e+00	-2.429158e+01	-1.474099e-01	0	0
2664297	2.197000e+00	-1.868240e+01	-1.473013e-01	0	0
2666250	2.197000e+00	-9.954830e+00	-1.468331e-01	0	0
2668203	2.197000e+00	9.221109e+00	-1.477062e-01	0	0
2670156	2.197000e+00	2.151273e+01	-1.435732e-01	0	0
2672109	2.197000e+00	2.134334e+01	-1.581221e-01	0	0
2674063	2.197000e+00	2.562358e+01	-1.008319e-01	0	0
2676016	2.197000e+00	2.585711e+01	2.060188e-01	0	0
2677969	2.197000e+00	2.652339e+01	9.457478e-02	0	0
2679922	2.197000e+00	1.961955e+01	-1.674970e-01	0	0
2681875	2.197000e+00	1.615389e+01	-1.397484e-01	0	0
2683828	2.197000e+00	1.836954e+01	-1.469634e-01	0	0
2685781	2.197000e+00	2.224081e+01	-1.447386e-01	0	0
2687734	2.197000e+00	2.885416e+01	-1.453096e-01	0	0
2689688	2.197000e+00	4.982506e+01	-1.441341e-01	0	0
2691641	2.197000e+00	5.676065e+01	-1.471515e-01	0	0
2693594	2.197000e+00	6.854148e+01	-1.351432e-01	0	0
2695547	2.197000e+00	6.119449e+01	-1.821765e-01	0	0
2697500	2.197000e+00	6.763805e+01	-8.284029e-01	0	0
2699453	2.197000e+00	6.190214e+01	-1.833867e+00	0	0
2701406	2.197000e+00	5.992565e+01	-2.035092e+00	0	0
2703359	2.197000e+00	7.555131e+01	-1.588809e+00	0	0
2705313	2.197000e+00	6.965561e+01	-6.374197e-01	0	0
2707266	2.197000e+00	7.329862e+01	-1.065039e-01	0	0
2709219	2.197000e+00	8.599999e+01	-1.540431e-01	0	0
2711172	2.197000e+00	1.008956e+02	-1.351467e-01	0	0
2713125	2.197000e+00	9.823186e+01	-1.620730e-01	0	0
2715078	2.197000e+00	1.129874e+02	-6.716891e-02	0	0
2717031	2.197000e+00	1.084877e+02	8.772243e-01	0	0
2718984	2.197000e+00	1.284248e+02	1.898045e+00	0	0
2720938	2.197000e+00	1.253118e+02	1.337444e+00	0	0
2722891	2.197000e+00	1.234328e+02	-5.020742e-03	0	0
2724844	2.197000e+00	1.367674e+02	-1.363249e-01	0	0
2726797	2.197000e+00	1.466021e+02	-1.426668e-01	0	0
2728750	2.197000e+00	1.618443e+02	-1.407298e-01	0	0
2730703	2.197185e+00	1.739710e+02	-1.410110e-01	0	0
2732656	2.197815e+00	1.778373e+02	-1.406978e-01	0	0
2734609	2.197185e+00	1.793992e+02	-1.405437e-01	0	0
2736563	2.198000e+00	1.913914e+02	-1.403468e-01	0	0
2738516	2.198000e+00	1.891918e+02	-1.401613e-01	0	0
2740469	2.198000e+00	1.890839e+02	-1.399726e-01	0	0
2742422	2.198000e+00	1.959315e+02	-1.397847e-01	0	0
2744375	2.198000e+00	2.052664e+02	-1.395965e-01	0	0
2746328	2.198000e+00	2.290018e+02	-1.394083e-01	0	0
2748281	2.198000e+00	2.445667e+02	-1.392199e-01	0	0
2750234	2.198000e+00	2.640329e+02	-1.390315e-01	0	0
2752188	2.198000e+00	2.754024e+02	-1.388429e-01	0	0
2754141	2.198000e+00	2.823854e+02	-1.386543e-01	0	0
2756094	2.198000e+00	2.893043e+02	-1.384656e-01	0	0
2758047	2.198000e+00	2.956993e+02	-1.382769e-01	0	0
2760000	2.198000e+00	3.013673e+02	-1.380880e-01	0	0
2761953	2.198000e+00	3.090622e+02	-1.378991e-01	0	0
2763906	2.198000e+00	3.333261e+02	-1.377101e-01	0	0
2765859	2.198000e+00	3.530570e+02	-1.375210e-01	0	0
2767813	2.198000e+00	3.684079e+02	-1.373317e-01	0	0
2769766	2.198000e+00	3.825941e+02	-1.371424e-01	0	0
2771719	2.198000e+00	4.028863e+02	-1.369531e-01	0	0
2773672	2.198000e+00	4.022233e+02	-1.367636e-01	0	0
2775625	2.198000e+00	3.918041e+02	-1.365741e-01	0	0
2777578	2.198000e+00	4.142299e+02	-1.363845e-01	0	0
2779531	2.198000e+00	4.153335e+02	-1.361948e-01	0	0
2781484	2.198000e+00	4.174901e+02	-1.360050e-01	0	0
2783438	2.198000e+00	4.409242e+02	-1.358150e-01	0	0
2785391	2.198000e+00	4.510914e+02	-1.356251e-01	0	0
2787344	2.198000e+00	4.670613e+02	-1.354351e-01	0	0
2789297	2.198000e+00	4.833855e+02	-1.352449e-01	0	0
2791250	2.198000e+00	5.010900e+02	-1.350547e-01	0	0
2793203	2.198000e+00	5.082906e+02	-1.348645e-01	0	0
2795156	2.198000e+00	5.251744e+02	-1.346741e-01	0	0
2797109	2.198000e+00	5.337612e+02	-1.344836e-01	0	0
2799063	2.198000e+00	5.425263e+02	-1.342930e-01	0	0
2801016	2.198188e+00	5.325337e+02	-1.341024e-01	0	0
2802969	2.198812e+00	5.397613e+02	-1.339116e-01	0	0
2804922	2.198188e+00	5.535341e+02	-1.337209e-01	0	0
2806875	2.198812e+00	5.453550e+02	-1.335300e-01	0	0
2808828	2.198188e+00	5.453942e+02	-1.333390e-01	0	0
2810781	2.199000e+00	5.369953e+02	-1.331480e-01	0	0
2812734	2.199000e+00	5.118690e+02	-1.329568e-01	0	0
2814688	2.199000e+00	4.948123e+02	-1.327655e-01	0	0
2816641	2.199000e+00	4.691503e+02	-1.325742e-01	0	0
2818594	2.199000e+00	4.366959e+02	-1.323828e-01	0	0
2820547	2.199000e+00	4.188226e+02	-1.321914e-01	0	0
2822500	2.199000e+00	3.848165e+02	-1.319998e-01	0	0
2824453	2.199000e+00	3.564100e+02	-1.318082e-01	0	0
2826406	2.199000e+00	3.331691e+02	-1.316165e-01	0	0
2828359	2.199000e+00	3.161629e+02	-1.314247e-01	0	0
2830313	2.199000e+00	2.957458e+02	-1.312327e-01	0	0
2832266	2.199000e+00	2.652228e+02	-1.310407e-01	0	0
2834219	2.199000e+00	2.338450e+02	-1.308487e-01	0	0
2836172	2.199000e+00	2.104995e+02	-1.306565e-01	0	0
2838125	2.199000e+00	1.797078e+02	-1.304643e-01	0	0
2840078	2.199000e+00	1.484373e+02	-1.302720e-01	0	0
2842031	2.199000e+00	1.251056e+02	-1.300796e-01	0	0
2843984	2.199000e+00	1.089270e+02	-1.298871e-01	0	0
2845938	2.199000e+00	8.697591e+01	-1.296945e-01	0	0
2847891	2.199000e+00	6.363398e+01	-1.295019e-01	0	0
2849844	2.199000e+00	6.883170e+01	-1.293091e-01	0	0
2851797	2.199000e+00	5.515159e+01	-1.291163e-01	0	0
2853750	2.199000e+00	3.722141e+01	-1.289234e-01	0	0
2855703	2.199000e+00	3.117100e+01	-1.287305e-01	0	0
2857656	2.199000e+00	1.393266e+00	-1.285374e-01	0	0
2859609	2.199000e+00	-1.334639e+01	-1.283443e-01	0	0
2861563	2.199000e+00	-2.974197e+01	-1.281510e-01	0	0
2863516	2.199190e+00	-3.620901e+01	-1.279577e-01	0	0
2865469	2.200000e+00	-3.153803e+01	-1.277643e-01	0	0
2867422	2.200000e+00	-2.745285e+01	-1.275708e-01	0	0
2869375	2.200000e+00	-2.032291e+01	-1.273772e-01	0	0
2871328	2.200000e+00	-2.654135e+01	-1.271836e-01	0	0
2873281	2.200000e+00	-2.990626e+01	-1.269899e-01	0	0
2875234	2.200000e+00	-4.828407e+01	-1.267961e-01	0	0
2877188	2.200000e+00	-5.531117e+01	-1.266021e-01	0	0
2879141	2.200000e+00	-6.168711e+01	-1.264081e-01	0	0
2881094	2.200000e+00	-6.879224e+01	-1.262141e-01	0	0
2883047	2.200000e+00	-8.001023e+01	-1.260200e-01	0	0
2885000	2.200000e+00	-7.745016e+01	-1.258257e-01	0	0
2886953	2.200000e+00	-6.741881e+01	-1.256314e-01	0	0
2888906	2.200000e+00	-5.740983e+01	-1.254371e-01	0	0
2890859	2.200000e+00	-4.571140e+01	-1.252426e-01	0	0
2892813	2.200000e+00	-5.467823e+01	-1.250479e-01	0	0
2894766	2.200000e+00	-5.602387e+01	-1.248533e-01	0	0
2896719	2.200000e+00	-6.095690e+01	-1.246586e-01	0	0
2898672	2.200000e+00	-7.107668e+01	-1.244638e-01	0	0
2900625	2.200000e+00	-8.375360e+01	-1.242689e-01	0	0
2902578	2.200000e+00	-8.708359e+01	-1.240740e-01	0	0
2904531	2.200000e+00	-9.203061e+01	-1.238789e-01	0	0
2906484	2.200000e+00	-8.364717e+01	-1.236838e-01	0	0
2908438	2.200000e+00	-6.747899e+01	-1.234885e-01	0	0
2910391	2.200000e+00	-6.350439e+01	-1.232932e-01	0	0
2912344	2.200000e+00	-6.825953e+01	-1.230979e-01	0	0
2914297	2.200000e+00	-7.370357e+01	-1.229024e-01	0	0
2916250	2.200000e+00	-7.250424e+01	-1.227069e-01	0	0
2918203	2.200000e+00	-7.994294e+01	-1.225113e-01	0	0
2920156	2.200000e+00	-8.747411e+01	-1.223156e-01	0	0
2922109	2.200192e+00	-9.521553e+01	-1.221198e-01	0	0
2924063	2.200808e+00	-9.743924e+01	-1.219238e-01	0	0
2926016	2.200192e+00	-9.582872e+01	-1.217279e-01	0	0
2927969	2.201000e+00	-8.565955e+01	-1.215318e-01	0	0
2929922	2.200808e+00	-7.465854e+01	-1.213358e-01	0	0
2931875	2.200192e+00	-7.048524e+01	-1.211393e-01	0	0
2933828	2.201000e+00	-7.694574e+01	-1.209441e-01	0	0
2935781	2.201000e+00	-8.354142e+01	-1.207438e-01	0	0
2937734	2.201000e+00	-8.313094e+01	-1.205622e-01	0	0
2939688	2.201000e+00	-9.045322e+01	-1.203101e-01	0	0
2941641	2.201000e+00	-8.412821e+01	-1.203206e-01	0	0
2943594	2.201000e+00	-8.447141e+01	-1.192091e-01	0	0
2945547	2.201000e+00	-8.027755e+01	-8.888296e-02	0	0
2947500	2.201000e+00	-6.726466e+01	-2.518925e-02	0	0
2949453	2.201000e+00	-6.936238e+01	-1.234867e-02	0	0
2951406	2.201000e+00	-6.315564e+01	-5.122701e-02	0	0
2953359	2.201000e+00	-5.124272e+01	-1.166227e-01	0	0
2955313	2.201000e+00	-6.380450e+01	-1.181000e-01	0	0
2957266	2.201000e+00	-6.601996e+01	-1.187633e-01	0	0
2959219	2.201000e+00	-6.842436e+01	-1.183354e-01	0	0
2961172	2.201000e+00	-8.246938e+01	-1.181998e-01	0	0
2963125	2.201000e+00	-8.113967e+01	-1.179857e-01	0	0
2965078	2.201000e+00	-6.917612e+01	-1.177926e-01	0	0
2967031	2.201000e+00	-6.179040e+01	-1.175937e-01	0	0
2968984	2.201000e+00	-6.052971e+01	-1.173963e-01	0	0
2970938	2.201000e+00	-6.297611e+01	-1.171982e-01	0	0
2972891	2.201000e+00	-6.073337e+01	-1.170008e-01	0	0
2974844	2.201000e+00	-6.687626e+01	-1.168009e-01	0	0
2976797	2.201000e+00	-6.201298e+01	-1.166102e-01	0	0
2978750	2.201000e+00	-6.501175e+01	-1.163846e-01	0	0
2980703	2.201000e+00	-6.029428e+01	-1.162886e-01	0	0
2982656	2.201194e+00	-3.512363e+01	-1.157088e-01	0	0
2984609	2.202000e+00	-4.901211e+01	-1.169344e-01	0	0
2986563	2.202000e+00	-5.003210e+01	-1.114089e-01	0	0
2988516	2.202000e+00	-3.442458e+01	-1.321103e-01	0	0
2990469	2.202000e+00	-3.995674e+01	-2.848809e-01	0	0
2992422	2.202000e+00	-4.666561e+01	-4.307734e-01	0	0
2994375	2.202000e+00	-3.580340e+01	-5.337961e-01	0	0
2996328	2.202000e+00	-3.874851e+01	-5.915640e-01	0	0
2998281	2.202000e+00	-4.704458e+01	-6.014427e-01	0	0
3000234	2.202000e+00	-6.609983e+01	-5.703562e-01	0	0
3002188	2.202000e+00	-5.897311e+01	-5.063037e-01	0	0
3004141	2.202000e+00	-5.641968e+01	-4.131833e-01	0	0
3006094	2.202000e+00	-6.445444e+01	-2.866149e-01	0	0
3008047	2.202000e+00	-4.734913e+01	-1.515011e-01	0	0
3010000	2.202000e+00	-4.289221e+01	-1.110464e-01	0	0
3011953	2.202000e+00	-3.971467e+01	-1.136089e-01	0	0
3013906	2.202000e+00	-3.812011e+01	-1.126692e-01	0	0
3015859	2.202000e+00	-4.739839e+01	-1.126679e-01	0	0
3017813	2.202000e+00	-4.597476e+01	-1.124149e-01	0	0
3019766	2.202000e+00	-4.678287e+01	-1.122293e-01	0	0
3021719	2.202000e+00	-5.575072e+01	-1.120256e-01	0	0
3023672	2.202000e+00	-6.684203e+01	-1.118266e-01	0	0
3025625	2.202000e+00	-6.404046e+01	-1.116262e-01	0	0
3027578	2.202000e+00	-6.247007e+01	-1.114262e-01	0	0
3029531	2.202000e+00	-5.370292e+01	-1.112257e-01	0	0
3031484	2.202195e+00	-4.528082e+01	-1.110265e-01	0	0
3033438	2.203000e+00	-4.665612e+01	-1.108216e-01	0	0
3035391	2.203000e+00	-5.436518e+01	-1.106376e-01	0	0
3037344	2.203000e+00	-5.368545e+01	-1.103756e-01	0	0
3039297	2.203000e+00	-5.368956e+01	-1.104044e-01	0	0
3041250	2.203000e+00	-5.935912e+01	-1.093475e-01	0	0
3043203	2.203000e+00	-5.953530e+01	-1.123420e-01	0	0
3045156	2.203000e+00	-4.960667e+01	-9.950993e-02	0	0
3047109	2.203000e+00	-4.708481e+01	1.252026e-02	0	0
3049063	2.203000e+00	-5.241774e+01	1.614039e-01	0	0
3051016	2.203000e+00	-4.613899e+01	2.785030e-01	0	0
3052969	2.203000e+00	-5.728418e+01	3.683429e-01	0	0
3054922	2.203000e+00	-6.903037e+01	4.269908e-01	0	0
3056875	2.203000e+00	-7.250850e+01	4.521172e-01	0	0
3058828	2.203000e+00	-5.906765e+01	4.432717e-01	0	0
3060781	2.203000e+00	-7.678295e+01	4.145018e-01	0	0
3062734	2.203000e+00	-7.279048e+01	3.773724e-01	0	0
3064688	2.203000e+00	-7.275778e+01	3.312775e-01	0	0
3066641	2.203000e+00	-7.608634e+01	2.770540e-01	0	0
3068594	2.203000e+00	-6.568446e+01	2.151915e-01	0	0
3070547	2.203000e+00	-5.989432e+01	1.459449e-01	0	0
3072500	2.203000e+00	-6.184892e+01	7.087288e-02	0	0
3074453	2.203000e+00	-6.378721e+01	-1.342554e-02	0	0
3076406	2.203197e+00	-7.436237e+01	-9.130785e-02	0	0
3078359	2.204000e+00	-8.084811e+01	-1.067539e-01	0	0
3080313	2.204000e+00	-9.207279e+01	-1.058411e-01	0	0
3082266	2.204000e+00	-9.035389e+01	-1.058293e-01	0	0
3084219	2.204000e+00	-8.204430e+01	-1.055758e-01	0	0
3086172	2.204000e+00	-8.244245e+01	-1.053870e-01	0	0
3088125	2.204000e+00	-7.078356e+01	-1.051807e-01	0	0
3090078	2.204000e+00	-6.504627e+01	-1.049790e-01	0	0
3092031	2.204000e+00	-5.413969e+01	-1.047759e-01	0	0
3093984	2.204000e+00	-6.465184e+01	-1.045731e-01	0	0
3095938	2.204000e+00	-5.366986e+01	-1.043701e-01	0	0
3097891	2.204000e+00	-6.331363e+01	-1.041671e-01	0	0
3099844	2.204000e+00	-6.070443e+01	-1.039640e-01	0	0
3101797	2.204000e+00	-3.605241e+01	-1.037608e-01	0	0
3103750	2.204000e+00	-5.356325e+00	-1.035576e-01	0	0
3105703	2.204000e+00	1.579765e+01	-1.033542e-01	0	0
3107656	2.204000e+00	2.811476e+01	-1.031508e-01	0	0
3109609	2.204000e+00	4.644107e+01	-1.029474e-01	0	0
3111563	2.204000e+00	6.828521e+01	-1.027437e-01	0	0
3113516	2.204000e+00	6.725854e+01	-1.025400e-01	0	0
3115469	2.204000e+00	6.887646e+01	-1.023363e-01	0	0
3117422	2.204000e+00	6.974926e+01	-1.021325e-01	0	0
3119375	2.204000e+00	5.686550e+01	-1.019287e-01	0	0
3121328	2.204198e+00	6.874465e+01	-1.017247e-01	0	0
3123281	2.204802e+00	7.210166e+01	-1.015207e-01	0	0
3125234	2.204198e+00	8.519231e+01	-1.013165e-01	0	0
3127188	2.205000e+00	9.042475e+01	-1.011125e-01	0	0
3129141	2.205000e+00	1.061852e+02	-1.009072e-01	0	0
3131094	2.205000e+00	1.145287e+02	-1.007068e-01	0	0
3133047	2.205000e+00	1.140783e+02	-1.004874e-01	0	0
3135000	2.205000e+00	1.211614e+02	-1.003391e-01	0	0
3136953	2.205000e+00	1.392880e+02	-1.000979e-01	0	0
3138906	2.205000e+00	1.529906e+02	-1.380988e-01	0	0
3140859	2.205000e+00	1.704484e+02	-2.488785e-01	0	0
3142813	2.205000e+00	1.693537e+02	-3.349077e-01	0	0
3144766	2.205000e+00	1.623712e+02	-4.081925e-01	0	0
3146719	2.205000e+00	1.633049e+02	-4.650815e-01	0	0
3148672	2.205000e+00	1.673830e+02	-5.061131e-01	0	0
3150625	2.205000e+00	1.734856e+02	-5.306764e-01	0	0
3152578	2.205000e+00	1.631180e+02	-5.385181e-01	0	0
3154531	2.205000e+00	1.456053e+02	-5.295933e-01	0	0
3156484	2.205000e+00	1.384632e+02	-5.037439e-01	0	0
3158438	2.205000e+00	1.430441e+02	-4.606630e-01	0	0
3160391	2.205000e+00	1.238220e+02	-3.996110e-01	0	0
3162344	2.205200e+00	1.056535e+02	-3.217728e-01	0	0
3164297	2.205800e+00	6.909551e+01	-2.209299e-01	0	0
3166250	2.205200e+00	4.611539e+01	-1.239354e-01	0	0
3168203	2.206000e+00	2.639443e+01	-1.175203e-01	0	0
3170156	2.206000e+00	9.248642e+00	-1.149848e-01	0	0
3172109	2.206000e+00	-1.512897e+01	-9.446464e-02	0	0
3174063	2.206000e+00	-2.502789e+01	-9.670592e-02	0	0
3176016	2.206000e+00	-3.444450e+01	-9.584323e-02	0	0
3177969	2.206000e+00	-6.382463e+01	-9.581295e-02	0	0
3179922	2.206000e+00	-7.661699e+01	-9.555953e-02	0	0
3181875	2.206000e+00	-9.417219e+01	-9.536580e-02	0	0
3183828	2.206000e+00	-9.550280e+01	-9.515598e-02	0	0
3185781	2.206000e+00	-9.501799e+01	-9.495037e-02	0	0
3187734	2.206000e+00	-8.854065e+01	-9.474353e-02	0	0
3189688	2.206000e+00	-1.025059e+02	-9.453682e-02	0	0
3191641	2.206000e+00	-1.045336e+02	-9.433007e-02	0	0
3193594	2.206000e+00	-1.042192e+02	-9.412322e-02	0	0
3195547	2.206000e+00	-1.102222e+02	-9.391643e-02	0	0
3197500	2.206000e+00	-1.082057e+02	-9.370905e-02	0	0
3199453	2.206000e+00	-1.226492e+02	-9.350349e-02	0	0
3201406	2.206000e+00	-1.366854e+02	-9.329078e-02	0	0
3203359	2.206000e+00	-1.537622e+02	-9.310439e-02	0	0
3205313	2.206201e+00	-1.329567e+02	-9.281914e-02	0	0
3207266	2.206799e+00	-1.241731e+02	-9.290255e-02	0	0
3209219	2.206201e+00	-1.219309e+02	-9.160992e-02	0	0
3211172	2.207000e+00	-1.235067e+02	-9.545244e-02	0	0
3213125	2.207000e+00	-1.356185e+02	-7.945865e-02	0	0
3215078	2.207000e+00	-1.445903e+02	1.298309e-03	0	0
3217031	2.207000e+00	-1.461282e+02	-2.315961e-02	0	0
3218984	2.207000e+00	-1.510502e+02	-9.806834e-02	0	0
3220938	2.207000e+00	-1.585720e+02	-9.022517e-02	0	0
3222891	2.207000e+00	-1.597178e+02	-8.667204e-02	0	0
3224844	2.207000e+00	-1.681602e+02	2.410328e-01	0	0
3226797	2.207000e+00	-1.642718e+02	5.420967e-01	0	0
3228750	2.207000e+00	-1.611415e+02	-1.016329e-01	0	0
3230703	2.207000e+00	-1.621415e+02	2.516415e-02	0	0
3232656	2.207000e+00	-1.567643e+02	3.285149e-02	0	0
3234609	2.207000e+00	-1.608172e+02	4.344270e-02	0	0
3236563	2.207000e+00	-1.686968e+02	1.005428e-01	0	0
3238516	2.207000e+00	-1.626869e+02	-1.021290e-01	0	0
3240469	2.207000e+00	-1.621536e+02	-1.250988e+00	0	0
3242422	2.207000e+00	-1.762560e+02	-1.345877e+00	0	0
3244375	2.207000e+00	-1.696825e+02	-4.165519e-01	0	0
3246328	2.207203e+00	-1.523055e+02	-2.162607e-02	0	0
3248281	2.208000e+00	-1.625964e+02	-9.969131e-02	0	0
3250234	2.208000e+00	-1.371036e+02	-8.501097e-02	0	0
3252188	2.208000e+00	-1.464673e+02	-8.881675e-02	0	0
3254141	2.208000e+00	-1.749245e+02	-8.702192e-02	0	0
3256094	2.208000e+00	-2.151516e+02	-8.913573e-02	0	0
3258047	2.208000e+00	-2.406330e+02	-8.121968e-02	0	0
3260000	2.208000e+00	-2.415545e+02	-1.095142e-01	0	0
3261953	2.208000e+00	-2.331377e+02	2.087930e-03	0	0
3263906	2.208000e+00	-1.626182e+02	6.247527e-01	0	0
3265859	2.208000e+00	-1.015065e+02	8.585250e-01	0	0
3267813	2.208000e+00	8.658828e+00	8.216193e-01	0	0
3269766	2.208000e+00	1.083187e+02	5.254850e-01	0	0
3271719	2.208000e+00	2.198471e+02	8.699132e-02	0	0
3273672	2.208000e+00	4.283708e+02	-9.822845e-02	0	0
3275625	2.208000e+00	6.859042e+02	-8.199300e-02	0	0
3277578	2.208000e+00	9.436423e+02	-8.591592e-02	0	0
3279531	2.208000e+00	1.224494e+03	-8.516929e-02	0	0
3281484	2.208000e+00	1.467986e+03	-8.293752e-02	0	0
3283438	2.208000e+00	1.699834e+03	-9.132988e-02	0	0
3285391	2.208204e+00	1.802580e+03	-5.867254e-02	0	0
3287344	2.209000e+00	1.679322e+03	-1.859125e-01	0	0
3289297	2.209000e+00	1.531772e+03	-9.823983e-01	0	0
3291250	2.209000e+00	1.228397e+03	-8.720840e-01	0	0
3293203	2.209000e+00	9.726172e+02	2.313186e-01	0	0
3295156	2.209000e+00	7.726792e+02	1.027921e-01	0	0
3297109	2.209000e+00	6.153792e+02	-2.241115e-02	0	0
3299063	2.209000e+00	4.160512e+02	-7.956660e-02	0	0
3301016	2.209000e+00	9.554186e+01	-1.136920e-01	0	0
3302969	2.209000e+00	-1.198395e+02	4.777059e-02	0	0
3304922	2.209000e+00	-2.144430e+02	1.122106e+00	0	0
3306875	2.209000e+00	-2.546076e+02	1.381121e+00	0	0
3308828	2.209000e+00	-2.653470e+02	3.004893e-01	0	0
3310781	2.209000e+00	-2.275038e+02	-1.059822e-01	0	0
3312734	2.209000e+00	-2.070394e+02	-7.511315e-02	0	0
3314688	2.209205e+00	-1.799589e+02	-8.032891e-02	0	0
3316641	2.209795e+00	-1.584246e+02	-9.200147e-02	0	0
3318594	2.209205e+00	-1.230409e+02	-6.520334e-01	0	0
3320547	2.210000e+00	-1.148883e+02	-1.627170e+00	0	0
3322500	2.210000e+00	-1.103671e+02	-1.357523e+00	0	0
3324453	2.210000e+00	-9.613431e+01	-1.098519e+00	0	0
3326406	2.210000e+00	-9.919363e+01	-1.043274e+00	0	0
3328359	2.210000e+00	-9.837592e+01	-6.621234e-01	0	0
3330313	2.210000e+00	-9.695717e+01	-1.730174e-01	0	0
3332266	2.210000e+00	-1.028226e+02	-7.523815e-02	0	0
3334219	2.210000e+00	-9.810654e+01	-7.950532e-02	0	0
3336172	2.210000e+00	-1.087708e+02	-7.804407e-02	0	0
3338125	2.210000e+00	-1.087829e+02	-7.818794e-02	0	0
3340078	2.210000e+00	-1.133850e+02	-7.763509e-02	0	0
3342031	2.210000e+00	-1.106842e+02	-7.825933e-02	0	0
3343984	2.210000e+00	-1.135819e+02	-7.486729e-02	0	0
3345938	2.210000e+00	-1.024683e+02	-8.638392e-02	0	0
3347891	2.210000e+00	-1.069047e+02	-3.985707e-02	0	0
3349844	2.210000e+00	-1.067775e+02	2.550863e-01	0	0
3351797	2.210206e+00	-1.025424e+02	4.094467e-01	0	0
3353750	2.211000e+00	-1.137800e+02	2.570836e-01	0	0
3355703	2.211000e+00	-1.157281e+02	-4.506972e-03	0	0
3357656	2.211000e+00	-1.132875e+02	-7.978903e-02	0	0
3359609	2.211000e+00	-1.191196e+02	-7.426930e-02	0	0
3361563	2.211000e+00	-1.268494e+02	-7.543305e-02	0	0
3363516	2.211000e+00	-1.213562e+02	-7.480426e-02	0	0
3365469	2.211000e+00	-1.137721e+02	-7.465526e-02	0	0
3367422	2.211000e+00	-9.485542e+01	-7.437674e-02	0	0
3369375	2.211000e+00	-8.645547e+01	-7.413196e-02	0	0
3371328	2.211000e+00	-8.276391e+01	-7.387718e-02	0	0
3373281	2.211000e+00	-9.782688e+01	-7.362411e-02	0	0
3375234	2.211000e+00	-7.895001e+01	-7.336963e-02	0	0
3377188	2.211000e+00	-9.893159e+01	-7.311443e-02	0	0
3379141	2.211000e+00	-9.426049e+01	-7.285857e-02	0	0
3381094	2.211207e+00	-8.721939e+01	-7.260196e-02	0	0
3383047	2.211793e+00	-8.144552e+01	-7.234460e-02	0	0
3385000	2.211207e+00	-7.438558e+01	-7.208649e-02	0	0
3386953	2.212000e+00	-6.952465e+01	-7.182764e-02	0	0
3388906	2.212000e+00	-7.244699e+01	-7.156803e-02	0	0
3390859	2.212000e+00	-7.578250e+01	-7.130767e-02	0	0
3392813	2.212000e+00	-6.570079e+01	-7.104644e-02	0	0
3394766	2.212000e+00	-7.596893e+01	-7.078459e-02	0	0
3396719	2.212000e+00	-6.626671e+01	-7.052200e-02	0	0
3398672	2.212000e+00	-7.701506e+01	-7.025867e-02	0	0
3400625	2.212000e+00	-7.517734e+01	-6.999460e-02	0	0
3402578	2.212000e+00	-7.220786e+01	-6.972979e-02	0	0
3404531	2.212000e+00	-6.422567e+01	-6.946424e-02	0	0
3406484	2.212000e+00	-6.578978e+01	-6.919795e-02	0	0
3408438	2.212000e+00	-5.683530e+01	-6.893078e-02	0	0
3410391	2.212000e+00	-3.722695e+01	-6.866302e-02	0	0
3412344	2.212000e+00	-3.275719e+01	-6.839453e-02	0	0
3414297	2.212000e+00	-4.079522e+01	-6.812530e-02	0	0
3416250	2.212208e+00	-3.674973e+01	-6.785533e-02	0	0
3418203	2.213000e+00	-4.400295e+01	-6.758466e-02	0	0
3420156	2.213000e+00	-5.037345e+01	-6.731316e-02	0	0
3422109	2.213000e+00	-4.469830e+01	-6.704133e-02	0	0
3424063	2.213000e+00	-4.183076e+01	-6.676712e-02	0	0
3426016	2.213000e+00	-3.346231e+01	-6.649796e-02	0	0
3427969	2.213000e+00	-1.817625e+01	-6.620708e-02	0	0
3429922	2.213000e+00	-1.092777e+01	-6.604946e-02	0	0
3431875	2.213000e+00	-6.326961e+00	-7.608761e-02	0	0
3433828	2.213000e+00	4.040909e+00	-9.255585e-02	0	0
3435781	2.213000e+00	1.310424e+00	-7.765812e-02	0	0
3437734	2.213000e+00	6.575401e+00	-6.370070e-02	0	0
3439688	2.213000e+00	3.454204e+00	-6.486394e-02	0	0
3441641	2.213209e+00	6.826042e+00	-6.419777e-02	0	0
3443594	2.214000e+00	2.375577e+00	-6.402133e-02	0	0
3445547	2.214000e+00	1.893150e+01	-6.371276e-02	0	0
3447500	2.214000e+00	2.867522e+01	-6.343869e-02	0	0
3449453	2.214000e+00	4.616128e+01	-6.315448e-02	0	0
3451406	2.214000e+00	6.321284e+01	-6.287208e-02	0	0
3453359	2.214000e+00	7.409257e+01	-6.258829e-02	0	0
3455313	2.214000e+00	7.194338e+01	-6.230384e-02	0	0
3457266	2.214000e+00	8.259908e+01	-6.201877e-02	0	0
3459219	2.214000e+00	7.604175e+01	-6.173301e-02	0	0
3461172	2.214000e+00	6.272739e+01	-6.144654e-02	0	0
3463125	2.214000e+00	7.280896e+01	-6.115937e-02	0	0
3465078	2.214000e+00	8.504365e+01	-6.087149e-02	0	0
3467031	2.214000e+00	9.184280e+01	-6.058292e-02	0	0
3468984	2.214000e+00	9.285985e+01	-6.029364e-02	0	0
3470938	2.214210e+00	1.145127e+02	-6.000352e-02	0	0
3472891	2.214790e+00	1.253297e+02	-5.971285e-02	0	0
3474844	2.214210e+00	1.360188e+02	-5.942148e-02	0	0
3476797	2.215000e+00	1.389480e+02	-5.912941e-02	0	0
3478750	2.215000e+00	1.437634e+02	-5.883665e-02	0	0
3480703	2.215000e+00	1.424133e+02	-5.854320e-02	0	0
3482656	2.215000e+00	1.436042e+02	-5.824906e-02	0	0
3484609	2.215000e+00	1.522391e+02	-5.795423e-02	0	0
3486563	2.215000e+00	1.720128e+02	-5.765855e-02	0	0
3488516	2.215000e+00	1.837785e+02	-5.736234e-02	0	0
3490469	2.215000e+00	2.049251e+02	-5.706544e-02	0	0
3492422	2.215000e+00	2.237447e+02	-5.676786e-02	0	0
3494375	2.215000e+00	2.322349e+02	-5.646958e-02	0	0
3496328	2.215000e+00	2.306023e+02	-5.617065e-02	0	0
3498281	2.215000e+00	2.286916e+02	-5.587094e-02	0	0
3500234	2.215211e+00	2.442880e+02	-5.557088e-02	0	0
3502188	2.216000e+00	2.522473e+02	-5.526879e-02	0	0
3504141	2.216000e+00	2.615714e+02	-5.497063e-02	0	0
3506094	2.216000e+00	2.764500e+02	-5.465514e-02	0	0
3508047	2.216000e+00	2.957710e+02	-5.440114e-02	0	0
3510000	2.216000e+00	3.093470e+02	-5.391444e-02	0	0
3511953	2.216000e+00	3.342731e+02	-5.429301e-02	0	0
3513906	2.216000e+00	3.509335e+02	-5.116269e-02	0	0
3515859	2.216000e+00	3.319896e+02	-9.789878e-03	0	0
3517813	2.216000e+00	3.517792e+02	7.391562e-02	0	0
3519766	2.216000e+00	3.604431e+02	1.466062e-01	0	0
3521719	2.216000e+00	3.567733e+02	2.146063e-01	0	0
3523672	2.216000e+00	3.680463e+02	2.762904e-01	0	0
3525625	2.216212e+00	3.762059e+02	3.295416e-01	0	0
3527578	2.217000e+00	3.894476e+02	3.589380e-01	0	0
3529531	2.217000e+00	4.082171e+02	3.548002e-01	0	0
3531484	2.217000e+00	4.275623e+02	3.200102e-01	0	0
3533438	2.217000e+00	4.410966e+02	2.556668e-01	0	0
3535391	2.217000e+00	4.390479e+02	1.659307e-01	0	0
3537344	2.217000e+00	4.288340e+02	4.509410e-02	0	0
3539297	2.217000e+00	4.283403e+02	-5.844183e-02	0	0
3541250	2.217000e+00	4.310215e+02	-4.666798e-02	0	0
3543203	2.217000e+00	4.253271e+02	-4.953514e-02	0	0
3545156	2.217000e+00	4.182145e+02	-4.795035e-02	0	0
3547109	2.217000e+00	4.172578e+02	-4.952840e-02	0	0
3549063	2.217213e+00	4.163899e+02	-4.288985e-02	0	0
3551016	2.218000e+00	4.087341e+02	-6.597317e-02	0	0
3552969	2.218000e+00	3.941660e+02	2.643050e-02	0	0
3554922	2.218000e+00	3.714298e+02	5.545413e-01	0	0
3556875	2.218000e+00	3.406841e+02	8.691035e-01	0	0
3558828	2.218000e+00	3.016811e+02	9.627658e-01	0	0
3560781	2.218000e+00	2.811052e+02	8.399169e-01	0	0
3562734	2.218000e+00	2.542508e+02	4.695567e-01	0	0
3564688	2.218000e+00	2.128291e+02	7.027087e-03	0	0
3566641	2.218000e+00	1.946178e+02	-4.438870e-02	0	0
3568594	2.218000e+00	1.770290e+02	-4.481719e-02	0	0
3570547	2.218000e+00	1.799842e+02	-4.417428e-02	0	0
3572500	2.218213e+00	1.540889e+02	-4.437307e-02	0	0
3574453	2.219000e+00	1.280436e+02	-4.227264e-02	0	0
3576406	2.219000e+00	1.120321e+02	-4.852360e-02	0	0
3578359	2.219000e+00	6.638731e+01	-2.407155e-02	0	0
3580313	2.219000e+00	2.865307e+01	-1.946771e-01	0	0
3582266	2.219000e+00	3.899399e+00	-1.048327e+00	0	0
3584219	2.219000e+00	-1.413779e+01	-1.791620e+00	0	0
3586172	2.219000e+00	-2.630710e+01	-2.171679e+00	0	0
3588125	2.219000e+00	-2.704708e+01	-2.204369e+00	0	0
3590078	2.219000e+00	-3.731944e+01	-1.939763e+00	0	0
3592031	2.219000e+00	-3.400261e+01	-1.385346e+00	0	0
3593984	2.219000e+00	-5.317017e+01	-7.136721e-01	0	0
3595938	2.219214e+00	-7.524906e+01	-4.829775e-01	0	0
3597891	2.220000e+00	-8.504943e+01	-4.743120e-01	0	0
3599844	2.220000e+00	-1.009706e+02	-4.316780e-01	0	0
3601797	2.220000e+00	-1.046073e+02	-3.836573e-01	0	0
3603750	2.220000e+00	-1.296959e+02	-3.232078e-01	0	0
3605703	2.220000e+00	-1.166217e+02	-2.530805e-01	0	0
3607656	2.220000e+00	-1.202859e+02	-1.724780e-01	0	0
3609609	2.220000e+00	-1.077617e+02	-8.530054e-02	0	0
3611563	2.220000e+00	-1.009334e+02	-3.313718e-02	0	0
3613516	2.220000e+00	-1.025903e+02	-3.815146e-02	0	0
3615469	2.220000e+00	-1.210946e+02	-3.640993e-02	0	0
3617422	2.220000e+00	-1.194944e+02	-3.633117e-02	0	0
3619375	2.220215e+00	-1.259634e+02	-3.635351e-02	0	0
3621328	2.221000e+00	-1.412317e+02	-3.430501e-02	0	0
3623281	2.221000e+00	-1.419030e+02	-4.043514e-02	0	0
3625234	2.221000e+00	-1.415963e+02	-1.443234e-02	0	0
3627188	2.221000e+00	-1.360284e+02	1.536324e-01	0	0
3629141	2.221000e+00	-1.375844e+02	3.202164e-01	0	0
3631094	2.221000e+00	-1.276670e+02	4.380451e-01	0	0
3633047	2.221000e+00	-1.368691e+02	4.436931e-01	0	0
3635000	2.221000e+00	-1.341309e+02	2.854370e-01	0	0
3636953	2.221000e+00	-1.492268e+02	3.885119e-02	0	0
3638906	2.221216e+00	-1.548590e+02	-3.725518e-02	0	0
3640859	2.221784e+00	-1.833160e+02	-3.097915e-02	0	0
3642813	2.221216e+00	-1.767864e+02	-3.222140e-02	0	0
3644766	2.222000e+00	-1.744360e+02	-3.144765e-02	0	0
3646719	2.222000e+00	-1.690800e+02	-3.121381e-02	0	0
3648672	2.222000e+00	-1.577812e+02	-3.083456e-02	0	0
3650625	2.222000e+00	-1.552690e+02	-3.049352e-02	0	0
3652578	2.222000e+00	-1.600396e+02	-3.014149e-02	0	0
3654531	2.222000e+00	-1.590979e+02	-2.979165e-02	0	0
3656484	2.222000e+00	-1.601834e+02	-2.944049e-02	0	0
3658438	2.222000e+00	-1.637835e+02	-2.908875e-02	0	0
3660391	2.222217e+00	-1.508380e+02	-2.873659e-02	0	0
3662344	2.222783e+00	-1.535119e+02	-2.838374e-02	0	0
3664297	2.222217e+00	-1.626956e+02	-2.803073e-02	0	0
3666250	2.223000e+00	-1.695726e+02	-2.767553e-02	0	0
3668203	2.223000e+00	-1.480532e+02	-2.732579e-02	0	0
3670156	2.223000e+00	-1.402407e+02	-2.695291e-02	0	0
3672109	2.223000e+00	-1.372963e+02	-2.666368e-02	0	0
3674063	2.223000e+00	-1.493393e+02	-2.605883e-02	0	0
3676016	2.223000e+00	-1.518524e+02	-2.662965e-02	0	0
3677969	2.223000e+00	-1.402002e+02	-2.246369e-02	0	0
3679922	2.223000e+00	-1.506678e+02	2.412930e-02	0	0
3681875	2.223000e+00	-1.591760e+02	1.103590e-01	0	0
3683828	2.223217e+00	-1.679929e+02	1.829243e-01	0	0
3685781	2.224000e+00	-1.617546e+02	2.473864e-01	0	0
3687734	2.224000e+00	-1.529507e+02	3.010000e-01	0	0
3689688	2.224000e+00	-1.546367e+02	3.361878e-01	0	0
3691641	2.224000e+00	-1.360868e+02	3.295799e-01	0	0
3693594	2.224000e+00	-1.343252e+02	2.724659e-01	0	0
3695547	2.224000e+00	-1.461994e+02	1.679645e-01	0	0
3697500	2.224000e+00	-1.446430e+02	3.728844e-02	0	0
3699453	2.224000e+00	-1.525294e+02	-2.655675e-02	0	0
3701406	2.224218e+00	-1.611525e+02	-1.987168e-02	0	0
3703359	2.225000e+00	-1.529012e+02	-2.120065e-02	0	0
3705313	2.225000e+00	-1.414925e+02	-2.038108e-02	0	0
3707266	2.225000e+00	-1.262847e+02	-2.013746e-02	0	0
3709219	2.225000e+00	-1.196938e+02	-1.973659e-02	0	0
3711172	2.225000e+00	-1.338140e+02	-1.938519e-02	0	0
3713125	2.225000e+00	-1.285103e+02	-1.898985e-02	0	0
3715078	2.225000e+00	-1.338147e+02	-1.871748e-02	0	0
3717031	2.225000e+00	-1.342328e+02	-1.799385e-02	0	0
3718984	2.225000e+00	-1.298157e+02	-1.894898e-02	0	0
3720938	2.225000e+00	-1.473583e+02	-1.362680e-02	0	0
3722891	2.225219e+00	-1.395014e+02	-2.892880e-02	0	0
3724844	2.226000e+00	-1.339294e+02	5.215515e-01	0	0
3726797	2.226000e+00	-1.335852e+02	1.956233e+00	0	0
3728750	2.226000e+00	-1.263824e+02	1.540667e+00	0	0
3730703	2.226000e+00	-1.377274e+02	-7.198669e-03	0	0
3732656	2.226000e+00	-1.305118e+02	9.203416e-03	0	0
3734609	2.226000e+00	-1.257428e+02	-2.987935e-02	0	0
3736563	2.226000e+00	-1.269846e+02	2.081520e-02	0	0
3738516	2.226000e+00	-1.385268e+02	-1.516348e-01	0	0
3740469	2.226000e+00	-1.547431e+02	-1.362545e+00	0	0
3742422	2.226219e+00	-1.501208e+02	-2.362087e+00	0	0
3744375	2.227000e+00	-1.421322e+02	-1.565652e+00	0	0
3746328	2.227000e+00	-1.375765e+02	-7.668673e-02	0	0
3748281	2.227000e+00	-1.307867e+02	-2.796385e-01	0	0
3750234	2.227000e+00	-1.255908e+02	-2.134961e-01	0	0
3752188	2.227000e+00	-1.236629e+02	-1.754989e-01	0	0
3754141	2.227000e+00	-1.318206e+02	-1.086487e-01	0	0
3756094	2.227000e+00	-1.520485e+02	3.111035e-02	0	0
3758047	2.227000e+00	-1.438584e+02	4.832823e-01	0	0
3760000	2.227000e+00	-1.513537e+02	8.648212e-01	0	0
3761953	2.227220e+00	-1.536915e+02	5.246678e-01	0	0
3763906	2.228000e+00	-1.643464e+02	-6.544048e-02	0	0
3765859	2.228000e+00	-1.368945e+02	6.170890e-03	0	0
3767813	2.228000e+00	-1.344012e+02	-1.253762e-02	0	0
3769766	2.228000e+00	-1.465428e+02	-7.034023e-03	0	0
3771719	2.228000e+00	-1.360864e+02	-8.022530e-03	0	0
3773672	2.228000e+00	-1.445219e+02	-7.270784e-03	0	0
3775625	2.228000e+00	-1.526709e+02	-6.984695e-03	0	0
3777578	2.228000e+00	-1.605112e+02	-6.573179e-03	0	0
3779531	2.228000e+00	-1.562435e+02	-6.194620e-03	0	0
3781484	2.228220e+00	-1.559798e+02	-5.806581e-03	0	0
3783438	2.229000e+00	-1.508415e+02	-5.420237e-03	0	0
3785391	2.229000e+00	-1.341584e+02	-5.032937e-03	0	0
3787344	2.229000e+00	-1.291417e+02	-4.645301e-03	0	0
3789297	2.229000e+00	-1.102309e+02	-4.257111e-03	0	0
3791250	2.229000e+00	-6.137893e+01	-3.868428e-03	0	0
3793203	2.229000e+00	-4.151498e+01	-3.479236e-03	0	0
3795156	2.229000e+00	-5.271734e+01	-3.089544e-03	0	0
3797109	2.229221e+00	-4.297114e+01	-2.699341e-03	0	0
3799063	2.230000e+00	-1.986422e+01	-2.308466e-03	0	0
3801016	2.230000e+00	-2.973338e+01	-1.917184e-03	0	0
3802969	2.230000e+00	-4.261107e+01	-1.525796e-03	0	0
3804922	2.230000e+00	-3.756776e+01	-1.132447e-03	0	0
3806875	2.230000e+00	-2.673522e+01	-7.440634e-04	0	0
3808828	2.230000e+00	-1.709253e+01	-3.347991e-04	0	0
3810781	2.230000e+00	-2.479063e+00	-4.960166e-06	0	0
3812734	2.230000e+00	2.545531e+01	-3.860293e-06	0	0
3814688	2.230222e+00	1.047709e+01	1.035632e-06	0	0
3816641	2.231000e+00	-7.650441e-02	-2.775032e-07	0	0
3818594	2.231000e+00	3.728099e+01	7.435851e-08	0	0
3820547	2.231000e+00	3.993539e+01	-1.992477e-08	0	0
3822500	2.231000e+00	7.733939e+01	5.338951e-09	0	0
3824453	2.231000e+00	4.381524e+01	-1.430601e-09	0	0
3826406	2.231000e+00	4.665743e+00	3.833374e-10	0	0
3828359	2.231000e+00	4.293818e+01	-1.027173e-10	0	0
3830313	2.231000e+00	6.740184e+01	2.755662e-11	0	0
3832266	2.231223e+00	6.835432e+01	-7.383945e-12	0	0
3834219	2.232000e+00	7.419466e+01	1.978568e-12	0	0
3836172	2.232000e+00	6.225596e+01	-5.301681e-13	0	0
3838125	2.232000e+00	5.122166e+01	1.420614e-13	0	0
3840078	2.232000e+00	3.004766e+01	-3.806613e-14	0	0
3842031	2.232000e+00	3.448107e+01	1.020003e-14	0	0
3843984	2.232000e+00	3.939618e+01	-2.733152e-15	0	0
3845938	2.232223e+00	2.352220e+01	7.332345e-16	0	0
3847891	2.233000e+00	5.732929e+01	-1.964742e-16	0	0
3849844	2.232777e+00	7.059225e+01	5.264631e-17	0	0
3851797	2.232223e+00	6.672942e+01	-1.410686e-17	0	0
3853750	2.233000e+00	4.600582e+01	3.780010e-18	0	0
3855703	2.233000e+00	-1.201604e+00	-1.012874e-18	0	0
3857656	2.233000e+00	3.405043e+00	2.714051e-19	0	0
3859609	2.233000e+00	-2.353766e+01	-7.272445e-20	0	0
3861563	2.233000e+00	-1.011634e+02	1.950997e-20	0	0
3863516	2.233000e+00	-1.565754e+02	-5.227800e-21	0	0
3865469	2.233224e+00	-1.808917e+02	1.400817e-21	0	0
3867422	2.234000e+00	-1.596024e+02	-3.753566e-22	0	0
3869375	2.234000e+00	-1.671896e+02	1.005793e-22	0	0
3871328	2.234000e+00	-1.892105e+02	-2.695260e-23	0	0
3873281	2.234000e+00	-1.798466e+02	7.228955e-24	0	0
3875234	2.234000e+00	-1.683753e+02	-1.962647e-24	0	0
3877188	2.234000e+00	-1.888342e+02	6.223482e-25	0	0
3879141	2.234000e+00	-1.929610e+02	-5.243770e-25	0	0
3881094	2.234224e+00	-2.027792e+02	1.475213e-24	0	0
3883047	2.235000e+00	-2.166506e+02	-5.376716e-24	0	0
3885000	2.235000e+00	-2.339218e+02	2.003255e-23	0	0
3886953	2.235000e+00	-2.217803e+02	-7.475686e-23	0	0
3888906	2.235000e+00	-2.094413e+02	2.790075e-22	0	0
3890859	2.235000e+00	-2.111559e+02	-1.041320e-21	0	0
3892813	2.235000e+00	-2.244050e+02	3.896115e-21	0	0
3894766	2.235000e+00	-2.074484e+02	-1.454120e-20	0	0
3896719	2.235000e+00	-2.101084e+02	5.427113e-20	0	0
3898672	2.235225e+00	-2.223630e+02	-2.025524e-19	0	0
3900625	2.236000e+00	-2.411650e+02	7.559726e-19	0	0
3902578	2.236000e+00	-2.380105e+02	-2.821465e-18	0	0
3904531	2.236000e+00	-2.414141e+02	1.053036e-17	0	0
3906484	2.236000e+00	-2.639715e+02	-3.930174e-17	0	0
3908438	2.236000e+00	-2.381312e+02	1.470470e-16	0	0
3910391	2.236000e+00	-2.177052e+02	-5.488133e-16	0	0
3912344	2.236226e+00	-2.192177e+02	2.048298e-15	0	0
3914297	2.237000e+00	-2.204224e+02	-7.644721e-15	0	0
3916250	2.237000e+00	-2.391685e+02	2.853186e-14	0	0
3918203	2.237000e+00	-2.384228e+02	-1.064875e-13	0	0
3920156	2.237000e+00	-2.356958e+02	3.974360e-13	0	0
3922109	2.237000e+00	-2.459890e+02	-1.483323e-12	0	0
3924063	2.237000e+00	-2.463058e+02	5.549793e-12	0	0
3926016	2.237000e+00	-2.572365e+02	-2.071311e-11	0	0
3927969	2.237226e+00	-2.536330e+02	7.730608e-11	0	0
3929922	2.238000e+00	-2.492260e+02	-2.885241e-10	0	0
3931875	2.238000e+00	-2.247984e+02	1.076838e-09	0	0
3933828	2.238000e+00	-2.142943e+02	-4.019009e-09	0	0
3935781	2.238000e+00	-2.129106e+02	1.499987e-08	0	0
3937734	2.238000e+00	-2.275433e+02	-5.598297e-08	0	0
3939688	2.238000e+00	-2.335668e+02	2.094565e-07	0	0
3941641	2.238227e+00	-2.455703e+02	-7.817397e-07	0	0
3943594	2.239000e+00	-2.607856e+02	2.917632e-06	0	0
3945547	2.239000e+00	-2.879098e+02	-1.088927e-05	0	0
3947500	2.239000e+00	-3.261087e+02	4.064128e-05	0	0
3949453	2.239000e+00	-3.222906e+02	-1.516826e-04	0	0
3951406	2.239000e+00	-3.127827e+02	5.661143e-04	0	0
3953359	2.239000e+00	-2.859523e+02	-2.112869e-03	0	0
3955313	2.239227e+00	-2.036214e+02	7.905095e-03	0	0
3957266	2.240000e+00	-1.277525e+02	-2.950363e-02	0	0
3959219	2.240000e+00	-1.220977e+01	1.179700e-01	0	0
3961172	2.240000e+00	7.939484e+01	7.695954e-01	0	0
3963125	2.240000e+00	2.348452e+02	5.499693e-01	0	0
3965078	2.240000e+00	4.791107e+02	-6.092750e-02	0	0
3967031	2.240000e+00	7.259067e+02	1.566275e-02	0	0
3968984	2.240000e+00	9.481613e+02	-1.722126e-03	0	0
3970938	2.240228e+00	1.239330e+03	-8.798079e-03	0	0
3972891	2.241000e+00	1.489225e+03	3.691463e-02	0	0
3974844	2.241000e+00	1.670577e+03	-1.489214e-01	0	0
3976797	2.241000e+00	1.697008e+03	-9.827156e-01	0	0
3978750	2.241000e+00	1.553006e+03	-7.168928e-01	0	0
3980703	2.241000e+00	1.290766e+03	8.020105e-02	0	0
3982656	2.241000e+00	9.987209e+02	-2.149028e-02	0	0
3984609	2.241228e+00	8.475662e+02	5.758431e-03	0	0
3986563	2.242000e+00	6.195883e+02	-1.544744e-03	0	0
3988516	2.242000e+00	4.973948e+02	4.139220e-04	0	0
3990469	2.242000e+00	2.943790e+02	-1.109125e-04	0	0
3992422	2.242000e+00	3.137480e+01	2.971957e-05	0	0
3994375	2.242000e+00	-1.055513e+02	-7.963510e-06	0	0
3996328	2.242000e+00	-2.002642e+02	2.133863e-06	0	0
3998281	2.242000e+00	-2.759170e+02	-5.717794e-07	0	0
4000234	2.242229e+00	-3.325240e+02	1.532112e-07	0	0
4002188	2.243000e+00	-3.167006e+02	-4.109983e-08	0	0
4004141	2.243000e+00	-3.025603e+02	1.101291e-08	0	0
4006094	2.243000e+00	-2.914505e+02	-2.950964e-09	0	0
4008047	2.243000e+00	-2.286296e+02	7.907257e-10	0	0
4010000	2.243000e+00	-2.278266e+02	-2.118789e-10	0	0
4011953	2.243000e+00	-2.232470e+02	5.677403e-11	0	0
4013906	2.243229e+00	-1.924623e+02	-1.521289e-11	0	0
4015859	2.244000e+00	-2.061308e+02	4.076370e-12	0	0
4017813	2.244000e+00	-1.834180e+02	-1.093504e-12	0	0
4019766	2.244000e+00	-1.947241e+02	2.930098e-13	0	0
4021719	2.244000e+00	-2.017030e+02	-7.851344e-14	0	0
4023672	2.244000e+00	-2.188337e+02	2.103807e-14	0	0
4025625	2.244000e+00	-1.858964e+02	-5.637256e-15	0	0
4027578	2.244230e+00	-1.589617e+02	1.510531e-15	0	0
4029531	2.245000e+00	-1.424904e+02	-4.047544e-16	0	0
4031484	2.245000e+00	-1.368685e+02	1.084560e-16	0	0
4033438	2.245000e+00	-1.559263e+02	-2.909358e-17	0	0
4035391	2.245000e+00	-1.945581e+02	7.795770e-18	0	0
4037344	2.245000e+00	-1.885495e+02	-2.088915e-18	0	0
4039297	2.245230e+00	-1.716333e+02	5.597348e-19	0	0
4041250	2.245770e+00	-1.880674e+02	-1.499819e-19	0	0
4043203	2.245230e+00	-1.869733e+02	4.018168e-20	0	0
4045156	2.246000e+00	-2.024782e+02	-1.074179e-20	0	0
4047109	2.246000e+00	-1.732166e+02	2.784674e-21	0	0
4049063	2.246000e+00	-1.675649e+02	-3.966159e-22	0	0
4051016	2.246000e+00	-1.374663e+02	-1.201271e-21	0	0
4052969	2.246000e+00	-1.434988e+02	5.201943e-21	0	0
4054922	2.246231e+00	-1.656096e+02	-1.960736e-20	0	0
4056875	2.247000e+00	-1.909879e+02	7.323070e-20	0	0
4058828	2.247000e+00	-1.729532e+02	-2.733274e-19	0	0
4060781	2.247000e+00	-1.862361e+02	1.020123e-18	0	0
4062734	2.247000e+00	-1.892490e+02	-3.807332e-18	0	0
4064688	2.247000e+00	-1.757716e+02	1.424404e-17	0	0
4066641	2.247232e+00	-1.842879e+02	-5.316198e-17	0	0
4068594	2.248000e+00	-1.636928e+02	1.984125e-16	0	0
4070547	2.248000e+00	-1.518340e+02	-7.405203e-16	0	0
4072500	2.248000e+00	-1.419760e+02	2.763789e-15	0	0
4074453	2.248000e+00	-1.435372e+02	-1.031508e-14	0	0
4076406	2.248000e+00	-1.388307e+02	3.849822e-14	0	0
4078359	2.248000e+00	-1.423220e+02	-1.436841e-13	0	0
4080313	2.248232e+00	-1.670609e+02	5.375489e-13	0	0
4082266	2.249000e+00	-1.580378e+02	-2.006254e-12	0	0
4084219	2.249000e+00	-1.448775e+02	7.487791e-12	0	0
4086172	2.249000e+00	-1.387564e+02	-2.794612e-11	0	0
4088125	2.249000e+00	-1.196511e+02	1.043012e-10	0	0
4090078	2.249000e+00	-1.044343e+02	-3.892757e-10	0	0
4092031	2.249000e+00	-9.138507e+01	1.452864e-09	0	0
4093984	2.249232e+00	-1.104195e+02	-5.422417e-09	0	0
4095938	2.250000e+00	-1.007406e+02	2.028613e-08	0	0
4097891	2.250000e+00	-9.625272e+01	-7.571240e-08	0	0
4099844	2.250000e+00	-1.024343e+02	2.825757e-07	0	0
4101797	2.250000e+00	-1.120213e+02	-1.054636e-06	0	0
4103750	2.250000e+00	-1.215806e+02	3.936139e-06	0	0
4105703	2.250000e+00	-1.036978e+02	-1.469055e-05	0	0
4107656	2.250233e+00	-7.680431e+01	5.482845e-05	0	0
4109609	2.251000e+00	-6.027268e+01	-2.046321e-04	0	0
4111563	2.251000e+00	-6.380322e+01	7.655560e-04	0	0
4113516	2.251000e+00	-8.700438e+01	-2.857227e-03	0	0
4115469	2.251000e+00	-1.028539e+02	1.066381e-02	0	0
4117422	2.251000e+00	-1.207311e+02	-4.389543e-02	0	0
4119375	2.251233e+00	-6.331850e+01	-4.333502e-01	0	0
4121328	2.252000e+00	-6.477736e+01	-8.454192e-01	0	0
4123281	2.252000e+00	-7.726654e+01	-9.464645e-01	0	0
4125234	2.252000e+00	-6.279634e+01	-7.865941e-01	0	0
4127188	2.252000e+00	-5.450555e+01	-3.542762e-01	0	0
4129141	2.252000e+00	-4.352831e+01	3.693371e-02	0	0
4131094	2.252000e+00	-4.292575e+01	-9.900719e-03	0	0
4133047	2.252234e+00	-4.266902e+01	2.668454e-03	0	0
4135000	2.253000e+00	-1.810977e+01	-7.729104e-04	0	0
4136953	2.253000e+00	-3.275425e+00	4.231460e-04	0	0
4138906	2.253000e+00	-2.027232e+01	-9.196970e-04	0	0
4140859	2.253000e+00	-3.499875e+01	3.255778e-03	0	0
4142813	2.253000e+00	-3.003434e+01	-1.213265e-02	0	0
4144766	2.253235e+00	-2.287088e+01	5.151735e-02	0	0
4146719	2.254000e+00	-4.261388e+01	7.130198e-01	0	0
4148672	2.254000e+00	-7.036834e+00	1.810498e+00	0	0
4150625	2.254000e+00	-9.208120e+00	2.043996e+00	0	0
4152578	2.254000e+00	1.055140e+01	1.371606e+00	0	0
4154531	2.254235e+00	2.138500e+01	1.237102e+00	0	0
4156484	2.255000e+00	3.511249e+01	1.156879e+00	0	0
4158438	2.255000e+00	5.055211e+01	1.017638e+00	0	0
4160391	2.255000e+00	2.494139e+01	8.238752e-01	0	0
4162344	2.255000e+00	1.750538e+01	5.819267e-01	0	0
4164297	2.255000e+00	5.319954e+00	2.724954e-01	0	0
4166250	2.255000e+00	2.790803e+01	-1.419201e-02	0	0
4168203	2.255000e+00	5.280053e+01	-1.269391e-01	0	0
4170156	2.255235e+00	6.317580e+01	-3.083318e-01	0	0
4172109	2.256000e+00	6.291313e+01	-3.135176e-01	0	0
4174063	2.256000e+00	9.510368e+01	-1.459471e-01	0	0
4176016	2.256000e+00	1.096285e+02	1.538498e-02	0	0
4177969	2.256000e+00	1.136882e+02	-4.122478e-03	0	0
4179922	2.256000e+00	1.120810e+02	1.104637e-03	0	0
4181875	2.256236e+00	9.226484e+01	-2.959927e-04	0	0
4183828	2.257000e+00	1.220344e+02	7.931263e-05	0	0
4185781	2.257000e+00	1.473754e+02	-2.125219e-05	0	0
4187734	2.257000e+00	1.474532e+02	5.694624e-06	0	0
4189688	2.257000e+00	1.708506e+02	-1.527498e-06	0	0
4191641	2.257000e+00	1.882602e+02	4.093003e-07	0	0
4193594	2.257236e+00	1.876712e+02	-1.096739e-07	0	0
4195547	2.258000e+00	1.914529e+02	2.938764e-08	0	0
4197500	2.258000e+00	2.021113e+02	-7.874554e-09	0	0
4199453	2.258000e+00	2.150645e+02	2.110023e-09	0	0
4201406	2.258000e+00	1.978308e+02	-5.653905e-10	0	0
4203359	2.258000e+00	2.176994e+02	1.514990e-10	0	0
4205313	2.258237e+00	2.228789e+02	-4.063711e-11	0	0
4207266	2.259000e+00	2.357047e+02	1.088890e-11	0	0
4209219	2.259000e+00	2.840391e+02	-2.917731e-12	0	0
4211172	2.259000e+00	2.979279e+02	7.818195e-13	0	0
4213125	2.259000e+00	2.953884e+02	-2.094922e-13	0	0
4215078	2.259000e+00	3.010412e+02	5.613439e-14	0	0
4217031	2.259237e+00	3.195861e+02	-1.504147e-14	0	0
4218984	2.260000e+00	3.427125e+02	4.030431e-15	0	0
4220938	2.260000e+00	3.149883e+02	-1.081090e-15	0	0
4222891	2.260000e+00	3.145987e+02	2.896829e-16	0	0
4224844	2.260000e+00	3.193382e+02	-7.762187e-17	0	0
4226797	2.260237e+00	3.193694e+02	2.079914e-17	0	0
4228750	2.261000e+00	3.373808e+02	-5.573224e-18	0	0
4230703	2.261000e+00	3.572024e+02	1.493371e-18	0	0
4232656	2.261000e+00	3.723234e+02	-4.001556e-19	0	0
4234609	2.261000e+00	3.449895e+02	1.072235e-19	0	0
4236563	2.261000e+00	3.473676e+02	-2.876058e-20	0	0
4238516	2.261238e+00	3.343174e+02	7.706527e-21	0	0
4240469	2.262000e+00	3.241810e+02	-2.064999e-21	0	0
4242422	2.262000e+00	3.213591e+02	5.533259e-22	0	0
4244375	2.262000e+00	2.965878e+02	-1.482662e-22	0	0
4246328	2.262000e+00	2.808945e+02	3.972860e-23	0	0
4248281	2.262000e+00	2.399847e+02	-1.064546e-23	0	0
4250234	2.262238e+00	1.835891e+02	2.852499e-24	0	0
4252188	2.263000e+00	1.383309e+02	-7.651214e-25	0	0
4254141	2.263000e+00	1.234127e+02	2.050178e-25	0	0
4256094	2.263000e+00	7.663916e+01	-5.493543e-26	0	0
4258047	2.263000e+00	6.243567e+01	1.472020e-26	0	0
4260000	2.263000e+00	3.308926e+01	-3.944344e-27	0	0
4261953	2.263239e+00	1.607742e+01	1.056905e-27	0	0
4263906	2.264000e+00	-1.853240e+01	-2.832024e-28	0	0
4265859	2.264000e+00	-5.598430e+01	7.588536e-29	0	0
4267813	2.264000e+00	-7.741657e+01	-2.035448e-29	0	0
4269766	2.264000e+00	-1.151297e+02	5.454076e-30	0	0
4271719	2.264000e+00	-9.966353e+01	-1.461444e-30	0	0
4273672	2.264239e+00	-9.995517e+01	3.916005e-31	0	0
4275625	2.265000e+00	-1.120020e+02	-1.049311e-31	0	0
4277578	2.265000e+00	-1.448450e+02	2.811676e-32	0	0
4279531	2.265000e+00	-1.549599e+02	-7.534012e-33	0	0
4281484	2.265000e+00	-1.848116e+02	2.018772e-33	0	0
4283438	2.265240e+00	-1.932266e+02	-5.414855e-34	0	0
4285391	2.266000e+00	-1.744460e+02	1.450934e-34	0	0
4287344	2.266000e+00	-1.760782e+02	-3.887843e-35	0	0
4289297	2.266000e+00	-1.720901e+02	1.041765e-35	0	0
4291250	2.266000e+00	-1.493948e+02	-2.791456e-36	0	0
4293203	2.266000e+00	-1.712908e+02	7.479830e-37	0	0
4295156	2.266240e+00	-1.650898e+02	-2.004254e-37	0	0
4297109	2.267000e+00	-1.871284e+02	5.370487e-38	0	0
4299063	2.267000e+00	-2.194937e+02	-1.440491e-38	0	0
4301016	2.267000e+00	-2.374815e+02	3.859859e-39	0	0
4302969	2.267000e+00	-2.183983e+02	-1.034266e-39	0	0
4304922	2.267000e+00	-2.268074e+02	2.771362e-40	0	0
4306875	2.267240e+00	-2.251798e+02	-7.425987e-41	0	0
4308828	2.268000e+00	-2.180683e+02	1.989826e-41	0	0
4310781	2.268000e+00	-2.118106e+02	-5.331827e-42	0	0
4312734	2.268000e+00	-2.063528e+02	1.428687e-42	0	0
4314688	2.268000e+00	-2.133063e+02	-3.832049e-43	0	0
4316641	2.268241e+00	-1.949457e+02	1.026814e-43	0	0
4318594	2.269000e+00	-2.232019e+02	-2.751395e-44	0	0
4320547	2.269000e+00	-2.399262e+02	7.372483e-45	0	0
4322500	2.269000e+00	-2.428215e+02	-1.975489e-45	0	0
4324453	2.269000e+00	-2.311327e+02	5.293410e-46	0	0
4326406	2.269000e+00	-2.264833e+02	-1.418392e-46	0	0
4328359	2.269241e+00	-2.160731e+02	3.800637e-47	0	0
4330313	2.270000e+00	-2.256426e+02	-1.019381e-47	0	0
4332266	2.270000e+00	-2.175861e+02	2.730476e-48	0	0
4334219	2.270000e+00	-2.189138e+02	-7.279139e-49	0	0
4336172	2.270000e+00	-2.326340e+02	1.811297e-49	0	0
4338125	2.270242e+00	-2.320342e+02	3.410453e-51	0	0
4340078	2.271000e+00	-2.375874e+02	-1.947837e-49	0	0
4342031	2.271000e+00	-2.518315e+02	7.757575e-49	0	0
4343984	2.271000e+00	-2.203490e+02	-2.908367e-48	0	0
4345938	2.271000e+00	-2.358145e+02	1.088298e-47	0	0
4347891	2.271000e+00	-2.437273e+02	-4.061859e-47	0	0
4349844	2.271242e+00	-2.412623e+02	1.515976e-46	0	0
4351797	2.272000e+00	-2.346851e+02	-5.657953e-46	0	0
4353750	2.272000e+00	-2.305374e+02	2.111671e-45	0	0
4355703	2.272000e+00	-2.293622e+02	-7.881214e-45	0	0
4357656	2.272000e+00	-2.249802e+02	2.941440e-44	0	0
4359609	2.272242e+00	-2.379333e+02	-1.097809e-43	0	0
4361563	2.273000e+00	-2.674398e+02	4.106601e-43	0	0
4363516	2.273000e+00	-2.645420e+02	-1.532672e-42	0	0
4365469	2.273000e+00	-2.393735e+02	5.720265e-42	0	0
4367422	2.273000e+00	-2.334282e+02	-2.134927e-41	0	0
4369375	2.273000e+00	-2.222140e+02	7.968008e-41	0	0
4371328	2.273243e+00	-2.053417e+02	-2.973833e-40	0	0
4373281	2.274000e+00	-1.982427e+02	1.109899e-39	0	0
4375234	2.274000e+00	-2.229389e+02	-4.142383e-39	0	0
4377188	2.274000e+00	-1.994031e+02	1.549541e-38	0	0
4379141	2.274000e+00	-2.109224e+02	-5.783221e-38	0	0
4381094	2.274243e+00	-2.278887e+02	2.158423e-37	0	0
4383047	2.275000e+00	-2.412122e+02	-8.055700e-37	0	0
4385000	2.275000e+00	-2.171326e+02	3.006561e-36	0	0
4386953	2.275000e+00	-2.050426e+02	-1.122114e-35	0	0
4388906	2.275000e+00	-2.098487e+02	4.187970e-35	0	0
4390859	2.275000e+00	-2.040002e+02	-1.563041e-34	0	0
4392813	2.275244e+00	-2.106233e+02	5.846827e-34	0	0
4394766	2.276000e+00	-2.241128e+02	-2.182162e-33	0	0
4396719	2.276000e+00	-2.194911e+02	8.144299e-33	0	0
4398672	2.276000e+00	-2.199654e+02	-3.039628e-32	0	0
4400625	2.276000e+00	-2.249639e+02	1.134455e-31	0	0
4402578	2.276244e+00	-2.106567e+02	-4.234029e-31	0	0
4404531	2.277000e+00	-2.106982e+02	1.580231e-30	0	0
4406484	2.277000e+00	-2.043212e+02	-5.897762e-30	0	0
