time	gsr	ecg	emg_trapezius	emg_corrugator	emg_zygomaticus
313	2.289000e+00	-1.148948e+02	7.275347e-01	0	0
2266	2.289000e+00	-1.254563e+02	-5.448731e-01	0	0
4219	2.289000e+00	-1.338422e+02	-1.458968e-01	0	0
6172	2.289000e+00	-1.364698e+02	-4.827048e-01	0	0
8125	2.289000e+00	-1.392179e+02	4.848175e-01	0	0
10078	2.289000e+00	-1.372577e+02	4.280957e+00	0	0
12031	2.289000e+00	-1.260066e+02	-7.430396e-01	0	0
13984	2.288842e+00	-1.273978e+02	-5.976679e-02	0	0
15938	2.288000e+00	-1.255147e+02	-6.360728e-01	0	0
17891	2.288000e+00	-1.301319e+02	-2.286187e+00	0	0
19844	2.288000e+00	-1.360535e+02	-6.717978e-02	0	0
21797	2.288000e+00	-1.474062e+02	-3.249572e-01	0	0
23750	2.288000e+00	-1.484002e+02	-2.717557e-01	0	0
25703	2.288000e+00	-1.491061e+02	-3.390845e-01	0	0
27656	2.288000e+00	-1.507922e+02	-2.430256e-01	0	0
29609	2.288000e+00	-1.437359e+02	1.780012e-01	0	0
31563	2.288000e+00	-1.445167e+02	-4.187449e-01	0	0
33516	2.288000e+00	-1.263554e+02	-3.852079e-01	0	0
35469	2.288000e+00	-1.261891e+02	-3.599631e-01	0	0
37422	2.288000e+00	-1.343513e+02	-5.989316e-01	0	0
39375	2.288000e+00	-1.395600e+02	-1.516834e+00	0	0
41328	2.288000e+00	-1.488178e+02	-3.476720e-01	0	0
43281	2.288000e+00	-1.478767e+02	-4.617069e-01	0	0
45234	2.288000e+00	-1.528130e+02	-5.736757e-01	0	0
47188	2.288000e+00	-1.508305e+02	-6.772040e-02	0	0
49141	2.288000e+00	-1.431989e+02	4.224708e+00	0	0
51094	2.288000e+00	-1.404869e+02	4.323740e+00	0	0
53047	2.288000e+00	-1.446536e+02	-1.020335e+00	0	0
55000	2.288000e+00	-1.595367e+02	-6.903574e-02	0	0
56953	2.288000e+00	-2.008250e+02	-1.859026e+00	0	0
58906	2.288000e+00	-2.285263e+02	-8.336533e+00	0	0
60859	2.288000e+00	-2.298603e+02	2.432911e-01	0	0
62813	2.287840e+00	-2.120101e+02	-8.802564e-01	0	0
64766	2.287160e+00	-1.520635e+02	-5.606227e-01	0	0
66719	2.287841e+00	-7.446449e+01	-1.212178e+00	0	0
68672	2.287000e+00	1.638309e+01	8.127523e-01	0	0
70625	2.287000e+00	1.023221e+02	9.082071e+00	0	0
72578	2.287000e+00	2.209027e+02	-1.260434e+00	0	0
74531	2.287000e+00	4.352447e+02	-1.427369e-01	0	0
76484	2.287000e+00	7.180567e+02	-1.882039e+00	0	0
78438	2.287000e+00	9.487913e+02	-7.883393e+00	0	0
80391	2.287000e+00	1.216964e+03	2.183387e-01	0	0
82344	2.287000e+00	1.490822e+03	-6.989223e-01	0	0
84297	2.287000e+00	1.710375e+03	-4.777384e-01	0	0
86250	2.287000e+00	1.829050e+03	-8.574061e-01	0	0
88203	2.287000e+00	1.747606e+03	-1.918578e-01	0	0
90156	2.287000e+00	1.612940e+03	1.059445e+00	0	0
92109	2.287000e+00	1.316869e+03	-6.134873e-01	0	0
94063	2.287000e+00	1.016912e+03	-4.081050e-01	0	0
96016	2.287000e+00	8.235411e+02	-4.472665e-01	0	0
97969	2.287000e+00	6.552238e+02	-4.199578e-01	0	0
99922	2.287000e+00	4.153194e+02	-4.092708e-01	0	0
101875	2.287000e+00	4.399446e+01	-3.942603e-01	0	0
103828	2.287000e+00	-2.059691e+02	-3.757142e-01	0	0
105781	2.287000e+00	-2.587164e+02	-3.715200e-01	0	0
107734	2.287000e+00	-2.844906e+02	-3.085066e-01	0	0
109688	2.287000e+00	-2.647250e+02	-1.137828e-01	0	0
111641	2.286839e+00	-2.292656e+02	-3.261527e-01	0	0
113594	2.286000e+00	-1.842530e+02	-3.033558e-01	0	0
115547	2.286000e+00	-1.351625e+02	-2.037747e-01	0	0
117500	2.286000e+00	-1.130014e+02	-5.292451e-01	0	0
119453	2.286000e+00	-8.394579e+01	-1.832715e+00	0	0
121406	2.286000e+00	-7.525216e+01	-1.186076e-01	0	0
123359	2.286000e+00	-7.277002e+01	-2.522175e-01	0	0
125313	2.286000e+00	-7.412128e+01	-4.513562e-01	0	0
127266	2.286000e+00	-8.501458e+01	4.997761e-01	0	0
129219	2.286000e+00	-9.078129e+01	4.232500e+00	0	0
131172	2.286000e+00	-7.826696e+01	-6.898262e-01	0	0
133125	2.286000e+00	-8.837377e+01	-2.464457e-01	0	0
135078	2.286000e+00	-8.461474e+01	1.001200e-01	0	0
137031	2.286000e+00	-8.685233e+01	-1.768320e+00	0	0
138984	2.286000e+00	-9.170571e+01	-9.205623e+00	0	0
140938	2.286000e+00	-8.707225e+01	6.552426e-01	0	0
142891	2.286000e+00	-8.992723e+01	-5.465204e-01	0	0
144844	2.286000e+00	-1.054019e+02	-4.185383e-02	0	0
146797	2.286000e+00	-1.035996e+02	-8.582089e-01	0	0
148750	2.286000e+00	-1.060812e+02	1.961316e+00	0	0
150703	2.286000e+00	-9.741566e+01	1.288124e+01	0	0
152656	2.286000e+00	-8.868579e+01	-1.743384e+00	0	0
154609	2.286000e+00	-7.296416e+01	6.698493e-01	0	0
156563	2.286000e+00	-6.924024e+01	-2.571421e+00	0	0
158516	2.286000e+00	-7.570547e+01	-1.318894e+01	0	0
160469	2.285838e+00	-7.441059e+01	9.682748e-01	0	0
162422	2.285162e+00	-8.211205e+01	-1.158669e+00	0	0
164375	2.286000e+00	-8.484829e+01	-8.351746e-01	0	0
166328	2.285838e+00	-8.524563e+01	-1.541463e+00	0	0
168281	2.285000e+00	-8.595638e+01	3.185025e-01	0	0
170234	2.285000e+00	-8.300948e+01	7.384947e+00	0	0
172188	2.285000e+00	-7.760692e+01	-1.621405e+00	0	0
174141	2.285000e+00	-6.601801e+01	-2.910670e-01	0	0
176094	2.285000e+00	-4.976394e+01	-5.324572e-02	0	0
178047	2.285000e+00	-5.059498e+01	-9.456132e-01	0	0
180000	2.285000e+00	-5.391707e+01	-4.484755e+00	0	0
181953	2.285000e+00	-5.991752e+01	1.628948e-01	0	0
183906	2.285000e+00	-5.558567e+01	-3.468604e-01	0	0
185859	2.285000e+00	-6.164688e+01	-3.366602e-01	0	0
187813	2.285000e+00	-6.335815e+01	1.452311e-01	0	0
189766	2.285000e+00	-5.925310e+01	2.167629e+00	0	0
191719	2.285000e+00	-5.610126e+01	-5.363778e-01	0	0
193672	2.285000e+00	-4.515252e+01	-8.382032e-02	0	0
195625	2.285000e+00	-4.721999e+01	-6.979909e-01	0	0
197578	2.285000e+00	-4.515502e+01	-2.702405e+00	0	0
199531	2.285000e+00	-4.541888e+01	-9.476009e-03	0	0
201484	2.285000e+00	-4.960551e+01	-1.011413e-01	0	0
203438	2.285000e+00	-4.374442e+01	5.726923e-01	0	0
205391	2.284837e+00	-4.085442e+01	1.119218e+00	0	0
207344	2.284163e+00	-3.487927e+01	1.229245e+00	0	0
209297	2.284837e+00	-3.509702e+01	2.727196e+00	0	0
211250	2.284000e+00	-2.979969e+01	7.513884e+00	0	0
213203	2.284163e+00	-2.811420e+01	1.482138e+00	0	0
215156	2.284837e+00	-1.551101e+01	2.630924e+00	0	0
217109	2.284000e+00	-9.287657e+00	2.345032e-01	0	0
219063	2.284000e+00	-1.827233e+01	-7.490147e+00	0	0
221016	2.284000e+00	-1.186351e+01	1.097497e+00	0	0
222969	2.284000e+00	-1.625556e+01	-5.647495e-01	0	0
224922	2.284000e+00	-9.930208e+00	-3.594317e-02	0	0
226875	2.284000e+00	-4.875403e+00	-8.411430e-01	0	0
228828	2.284000e+00	3.132585e-01	1.909502e+00	0	0
230781	2.284000e+00	1.073697e+01	1.232085e+01	0	0
232734	2.284000e+00	1.398480e+01	-1.663769e+00	0	0
234688	2.284000e+00	3.388009e+01	5.388167e-01	0	0
236641	2.284000e+00	3.678545e+01	-3.339046e+00	0	0
238594	2.284000e+00	2.296141e+01	-1.374853e+01	0	0
240547	2.284000e+00	3.255114e+01	-1.403071e+00	0	0
242500	2.284000e+00	1.835782e+01	-3.194036e+00	0	0
244453	2.284000e+00	2.219277e+01	-2.600199e+00	0	0
246406	2.284000e+00	3.567890e+01	-2.703112e+00	0	0
248359	2.284000e+00	3.921653e+01	-1.003319e+00	0	0
250313	2.284000e+00	5.247281e+01	4.202307e+00	0	0
252266	2.284000e+00	5.443400e+01	-1.439536e+00	0	0
254219	2.284000e+00	6.761771e+01	7.233008e-02	0	0
256172	2.284000e+00	7.362594e+01	-8.599968e-01	0	0
258125	2.284000e+00	7.865412e+01	-3.408927e+00	0	0
260078	2.283835e+00	7.208560e+01	6.733799e-02	0	0
262031	2.283165e+00	7.989505e+01	-3.511209e-01	0	0
263984	2.283835e+00	8.042353e+01	-2.020512e-01	0	0
265938	2.283000e+00	8.663492e+01	-3.797416e-01	0	0
267891	2.283000e+00	9.087646e+01	1.950387e-01	0	0
269844	2.283000e+00	1.072292e+02	2.335650e+00	0	0
271797	2.283000e+00	1.195758e+02	-5.524176e-01	0	0
273750	2.283000e+00	1.273847e+02	-7.188210e-02	0	0
275703	2.283000e+00	1.445831e+02	-7.073009e-01	0	0
277656	2.283000e+00	1.486537e+02	-2.584920e+00	0	0
279609	2.283000e+00	1.576641e+02	7.017470e-01	0	0
281563	2.283000e+00	1.697857e+02	1.001618e+00	0	0
283516	2.283000e+00	1.553125e+02	1.451820e+00	0	0
285469	2.283000e+00	1.690268e+02	1.509164e+00	0	0
287422	2.283000e+00	1.840009e+02	2.272667e+00	0	0
289375	2.283000e+00	1.894148e+02	6.252854e+00	0	0
291328	2.283000e+00	2.121907e+02	5.027216e+00	0	0
293281	2.283000e+00	2.209324e+02	9.695873e-01	0	0
295234	2.283000e+00	2.411623e+02	1.214949e+00	0	0
297188	2.283000e+00	2.557554e+02	-1.142960e+00	0	0
299141	2.283000e+00	2.583004e+02	-7.459665e+00	0	0
301094	2.283000e+00	2.663553e+02	5.044792e-01	0	0
303047	2.283000e+00	2.720969e+02	-4.943532e-01	0	0
305000	2.283000e+00	2.795024e+02	-5.462045e-02	0	0
306953	2.283000e+00	3.027038e+02	-8.141560e-01	0	0
308906	2.283000e+00	3.065840e+02	1.842457e+00	0	0
310859	2.282834e+00	3.209603e+02	1.173747e+01	0	0
312813	2.282000e+00	3.350997e+02	-1.636395e+00	0	0
314766	2.282000e+00	3.582922e+02	6.127340e-01	0	0
316719	2.282000e+00	3.656494e+02	-2.860493e+00	0	0
318672	2.282000e+00	3.711134e+02	-1.329745e+01	0	0
320625	2.282000e+00	3.739213e+02	-2.729021e-01	0	0
322578	2.282000e+00	3.904703e+02	-1.871093e+00	0	0
324531	2.282000e+00	3.932060e+02	-8.911778e-01	0	0
326484	2.282000e+00	4.046209e+02	-7.922553e-01	0	0
328438	2.282000e+00	4.191754e+02	1.083564e+00	0	0
330391	2.282000e+00	4.374552e+02	7.249432e+00	0	0
332344	2.282000e+00	4.479646e+02	-1.086559e+00	0	0
334297	2.282000e+00	4.557890e+02	1.650201e-01	0	0
336250	2.282000e+00	4.636031e+02	-1.114542e+00	0	0
338203	2.282000e+00	4.619048e+02	-4.788336e+00	0	0
340156	2.282000e+00	4.608297e+02	2.180123e-01	0	0
342109	2.282000e+00	4.645894e+02	-3.871609e-01	0	0
344063	2.282000e+00	4.534194e+02	-1.856192e-01	0	0
346016	2.282000e+00	4.339899e+02	-3.859644e-01	0	0
347969	2.282000e+00	4.219529e+02	2.275015e-01	0	0
349922	2.282000e+00	4.142555e+02	2.455920e+00	0	0
351875	2.282000e+00	4.107663e+02	-5.662220e-01	0	0
353828	2.282000e+00	3.986339e+02	-5.325704e-02	0	0
355781	2.282000e+00	3.899820e+02	-7.470782e-01	0	0
357734	2.282000e+00	3.478026e+02	-2.921638e+00	0	0
359688	2.281832e+00	3.287906e+02	2.964915e-02	0	0
361641	2.281168e+00	2.844774e+02	-3.419384e-01	0	0
363594	2.281832e+00	2.579171e+02	-1.727577e-01	0	0
365547	2.281000e+00	2.342174e+02	-4.773302e-01	0	0
367500	2.281000e+00	2.074000e+02	5.959120e-01	0	0
369453	2.281000e+00	1.872923e+02	4.470908e+00	0	0
371406	2.281000e+00	1.524710e+02	-7.117389e-01	0	0
373359	2.281000e+00	1.337113e+02	-2.415591e-01	0	0
375313	2.281000e+00	1.101935e+02	1.718951e-01	0	0
377266	2.281000e+00	9.149606e+01	-2.002303e+00	0	0
379219	2.281000e+00	6.325514e+01	-1.009647e+01	0	0
381172	2.281000e+00	3.575755e+01	8.244855e-01	0	0
383125	2.281000e+00	1.229243e+01	-5.227627e-01	0	0
385078	2.281000e+00	-1.531421e+01	1.117693e-01	0	0
387031	2.281000e+00	-2.329072e+01	-9.157243e-01	0	0
388984	2.281000e+00	-2.625289e+01	2.805997e+00	0	0
390938	2.281000e+00	-4.779059e+01	1.632297e+01	0	0
392891	2.281000e+00	-5.281755e+01	-1.971505e+00	0	0
394844	2.281000e+00	-4.877754e+01	1.190375e+00	0	0
396797	2.281000e+00	-6.216146e+01	-3.049908e+00	0	0
398750	2.281000e+00	-7.577333e+01	-1.638957e+01	0	0
400703	2.281000e+00	-8.942923e+01	1.208422e+00	0	0
402656	2.281000e+00	-1.055805e+02	-8.358133e-01	0	0
404609	2.281000e+00	-1.204832e+02	3.709627e-01	0	0
406563	2.281000e+00	-1.252894e+02	-3.722294e-01	0	0
408516	2.281000e+00	-1.294619e+02	1.863615e+00	0	0
410469	2.280831e+00	-1.275785e+02	9.712676e+00	0	0
412422	2.280000e+00	-1.226171e+02	-8.808700e-01	0	0
414375	2.280000e+00	-1.180750e+02	6.939764e-01	0	0
416328	2.280000e+00	-1.229269e+02	-7.254734e-01	0	0
418281	2.280000e+00	-1.162227e+02	-4.585746e+00	0	0
420234	2.280000e+00	-1.273856e+02	7.551580e-01	0	0
422188	2.280000e+00	-1.323376e+02	1.277699e-01	0	0
424141	2.280000e+00	-1.356813e+02	3.332877e-01	0	0
426094	2.280000e+00	-1.397797e+02	2.248287e-01	0	0
428047	2.280000e+00	-1.496835e+02	5.378351e-01	0	0
430000	2.280000e+00	-1.493580e+02	1.591192e+00	0	0
431953	2.280000e+00	-1.446399e+02	1.823576e-01	0	0
433906	2.280000e+00	-1.418241e+02	4.057524e-01	0	0
435859	2.280000e+00	-1.443375e+02	1.902908e-01	0	0
437813	2.280000e+00	-1.493907e+02	-4.282654e-01	0	0
439766	2.280000e+00	-1.480463e+02	4.302412e-01	0	0
441719	2.280000e+00	-1.600158e+02	3.244741e-01	0	0
443672	2.280000e+00	-1.624307e+02	3.705981e-01	0	0
445625	2.280000e+00	-1.642760e+02	2.930945e-01	0	0
447578	2.280000e+00	-1.611273e+02	5.540256e-01	0	0
449531	2.280000e+00	-1.621772e+02	1.476246e+00	0	0
451484	2.280000e+00	-1.641642e+02	2.050892e-01	0	0
453438	2.280000e+00	-1.628683e+02	2.635121e-01	0	0
455391	2.279830e+00	-1.503084e+02	3.875909e-01	0	0
457344	2.279170e+00	-1.587050e+02	-4.862643e-01	0	0
459297	2.280000e+00	-1.640096e+02	-3.503666e+00	0	0
461250	2.280000e+00	-1.569803e+02	3.899293e-01	0	0
463203	2.280000e+00	-1.581483e+02	-2.276427e-01	0	0
465156	2.279830e+00	-1.734684e+02	-5.431069e-02	0	0
467109	2.279000e+00	-1.555706e+02	-6.898591e-01	0	0
469063	2.279000e+00	-1.534434e+02	1.424176e+00	0	0
471016	2.279000e+00	-1.596849e+02	8.986944e+00	0	0
472969	2.279000e+00	-1.520068e+02	-1.360818e+00	0	0
474922	2.279000e+00	-1.466166e+02	5.450652e-01	0	0
476875	2.279000e+00	-1.448093e+02	-2.356757e+00	0	0
478828	2.279000e+00	-1.498479e+02	-1.142006e+01	0	0
480781	2.279000e+00	-1.474478e+02	9.420001e-01	0	0
482734	2.279000e+00	-1.479793e+02	-6.000003e-01	0	0
484688	2.279000e+00	-1.503438e+02	-1.736801e-02	0	0
486641	2.279000e+00	-1.572718e+02	-8.052430e-01	0	0
488594	2.279000e+00	-1.523260e+02	1.823589e+00	0	0
490547	2.279000e+00	-1.434751e+02	1.110741e+01	0	0
492500	2.279000e+00	-1.508062e+02	-1.570895e+00	0	0
494453	2.279000e+00	-1.370155e+02	5.485636e-01	0	0
496406	2.279000e+00	-1.360780e+02	-2.148801e+00	0	0
498359	2.279000e+00	-1.461967e+02	-1.015577e+01	0	0
500313	2.279000e+00	-1.379928e+02	8.063608e-01	0	0
502266	2.279000e+00	-1.404823e+02	-5.399673e-01	0	0
504219	2.279000e+00	-1.526356e+02	-1.173329e-01	0	0
506172	2.279000e+00	-1.509082e+02	-6.134024e-01	0	0
508125	2.279000e+00	-1.621070e+02	3.938230e-01	0	0
510078	2.279000e+00	-1.476219e+02	4.219608e+00	0	0
512031	2.279000e+00	-1.341844e+02	-1.248340e+00	0	0
513984	2.278828e+00	-1.388778e+02	-5.694085e-01	0	0
515938	2.278172e+00	-1.263873e+02	-1.189644e+00	0	0
517891	2.279000e+00	-1.349549e+02	-2.561163e+00	0	0
519844	2.278828e+00	-1.240828e+02	-7.040648e-01	0	0
521797	2.278000e+00	-1.258636e+02	-9.250337e-01	0	0
523750	2.278000e+00	-1.310269e+02	-8.441599e-01	0	0
525703	2.278000e+00	-1.318226e+02	-8.265484e-01	0	0
527656	2.278000e+00	-1.353751e+02	-7.764167e-01	0	0
529609	2.278000e+00	-1.325332e+02	-7.223851e-01	0	0
531563	2.278000e+00	-1.358575e+02	-6.563037e-01	0	0
533516	2.278000e+00	-1.390529e+02	-5.953789e-01	0	0
535469	2.278000e+00	-1.266734e+02	-4.989719e-01	0	0
537422	2.278000e+00	-1.339775e+02	-4.952331e-01	0	0
539375	2.278000e+00	-1.428073e+02	-7.564969e-01	0	0
541328	2.278000e+00	-1.306788e+02	-3.083238e-01	0	0
543281	2.278000e+00	-1.465130e+02	-3.377553e-01	0	0
545234	2.278000e+00	-1.324723e+02	-2.012861e-01	0	0
547188	2.278000e+00	-1.292390e+02	-5.006405e-01	0	0
549141	2.278000e+00	-1.446707e+02	7.373963e-01	0	0
551094	2.278000e+00	-1.317366e+02	5.105161e+00	0	0
553047	2.278000e+00	-1.215324e+02	-9.066243e-01	0	0
555000	2.278000e+00	-1.168935e+02	2.676271e-01	0	0
556953	2.278000e+00	-1.198246e+02	-1.660255e+00	0	0
558906	2.278000e+00	-1.262924e+02	-7.835820e+00	0	0
560859	2.278000e+00	-1.239181e+02	-9.679399e-02	0	0
562813	2.278000e+00	-1.369905e+02	-1.318211e+00	0	0
564766	2.278000e+00	-1.420373e+02	-8.701937e-01	0	0
566719	2.278000e+00	-1.416025e+02	-1.067110e+00	0	0
568672	2.278000e+00	-1.392646e+02	1.127950e+00	0	0
570625	2.277827e+00	-1.285454e+02	7.196260e+00	0	0
572578	2.277000e+00	-1.334822e+02	-1.110329e+00	0	0
574531	2.277000e+00	-1.178910e+02	2.559106e-01	0	0
576484	2.277000e+00	-1.351566e+02	-1.395305e+00	0	0
578438	2.277000e+00	-1.399108e+02	-6.124287e+00	0	0
580391	2.277000e+00	-1.436964e+02	3.889583e-01	0	0
582344	2.277000e+00	-1.527676e+02	-4.181512e-01	0	0
584297	2.277000e+00	-1.632725e+02	-1.634443e-01	0	0
586250	2.277000e+00	-1.614749e+02	-3.746108e-01	0	0
588203	2.277000e+00	-1.608660e+02	2.298699e-01	0	0
590156	2.277000e+00	-1.627882e+02	2.264979e+00	0	0
592109	2.277000e+00	-1.570731e+02	-5.104738e-01	0	0
594063	2.277000e+00	-1.586186e+02	-1.628563e-01	0	0
596016	2.277000e+00	-1.608156e+02	-2.373717e-01	0	0
597969	2.277000e+00	-1.628950e+02	-7.158699e-01	0	0
599922	2.277000e+00	-1.581902e+02	-1.032684e+00	0	0
601875	2.277000e+00	-1.678917e+02	5.154331e-01	0	0
603828	2.277000e+00	-1.740849e+02	5.375486e-01	0	0
605781	2.277000e+00	-1.709685e+02	6.461478e-01	0	0
607734	2.277000e+00	-1.755935e+02	1.042261e+00	0	0
609688	2.276825e+00	-1.670810e+02	2.147606e+00	0	0
611641	2.276175e+00	-1.629942e+02	8.148339e-01	0	0
613594	2.277000e+00	-1.637011e+02	1.112517e+00	0	0
615547	2.277000e+00	-1.531552e+02	6.727519e-01	0	0
617500	2.277000e+00	-1.548234e+02	-1.386088e+00	0	0
619453	2.276825e+00	-1.591008e+02	-4.905997e-01	0	0
621406	2.276175e+00	-1.599151e+02	8.380449e-01	0	0
623359	2.276825e+00	-1.563643e+02	5.357427e-01	0	0
625313	2.276000e+00	-1.500525e+02	5.498860e-01	0	0
627266	2.276000e+00	-1.599127e+02	-5.885446e-02	0	0
629219	2.276000e+00	-1.639221e+02	1.506422e+00	0	0
631172	2.276000e+00	-1.542777e+02	7.306483e+00	0	0
633125	2.276000e+00	-1.441611e+02	-1.087033e+00	0	0
635078	2.276000e+00	-1.283090e+02	4.775843e-01	0	0
637031	2.276000e+00	-1.176122e+02	-2.260095e+00	0	0
638984	2.276000e+00	-1.276070e+02	-1.067146e+01	0	0
640938	2.276000e+00	-1.141179e+02	8.973346e-01	0	0
642891	2.276000e+00	-8.421050e+01	-5.848881e-01	0	0
644844	2.276000e+00	-8.108559e+01	1.284506e-02	0	0
646797	2.276000e+00	-7.150759e+01	-8.952931e-01	0	0
648750	2.276000e+00	-5.702517e+01	2.214772e+00	0	0
650703	2.276000e+00	-3.030827e+01	1.281013e+01	0	0
652656	2.276000e+00	-3.577847e+01	-1.800434e+00	0	0
654609	2.276000e+00	-2.638500e+01	7.317190e-01	0	0
656563	2.276000e+00	-1.855475e+01	-2.629840e+00	0	0
658516	2.276000e+00	-9.620884e+00	-1.230674e+01	0	0
660469	2.276000e+00	-1.534183e+01	1.086544e+00	0	0
662422	2.276000e+00	-4.001175e+00	-7.070731e-01	0	0
664375	2.276000e+00	3.039468e+00	-8.158446e-01	0	0
666328	2.276000e+00	6.455373e+00	-1.598574e+00	0	0
668281	2.276000e+00	1.164751e+01	9.092720e-02	0	0
670234	2.275824e+00	2.769863e+01	5.805784e+00	0	0
672188	2.275000e+00	3.529146e+01	-9.543439e-01	0	0
674141	2.275000e+00	3.739387e+01	1.388154e-01	0	0
676094	2.275000e+00	4.915271e+01	-1.044423e+00	0	0
678047	2.275000e+00	6.006071e+01	-4.221289e+00	0	0
680000	2.275000e+00	8.178629e+01	1.965255e-01	0	0
681953	2.275000e+00	8.652941e+01	-3.634431e-01	0	0
683906	2.275000e+00	7.468402e+01	-1.605177e-01	0	0
685859	2.275000e+00	6.428214e+01	-4.116538e-01	0	0
687813	2.275000e+00	6.880455e+01	4.125513e-01	0	0
689766	2.275000e+00	6.351435e+01	3.160164e+00	0	0
691719	2.275000e+00	6.703687e+01	-6.209701e-01	0	0
693672	2.275000e+00	5.529862e+01	-7.364157e-02	0	0
695625	2.275000e+00	6.627573e+01	-5.125229e-01	0	0
697578	2.275000e+00	5.316766e+01	-3.364233e+00	0	0
699531	2.275000e+00	4.349241e+01	-3.794112e+00	0	0
701484	2.275000e+00	1.830437e+01	8.251817e-01	0	0
703438	2.275000e+00	-4.495334e+00	4.987961e-01	0	0
705391	2.275000e+00	-2.952883e+01	1.760162e-01	0	0
707344	2.275000e+00	-5.029598e+01	1.753302e+00	0	0
709297	2.275000e+00	-7.320769e+01	7.406666e+00	0	0
711250	2.275000e+00	-9.222366e+01	-2.704609e-01	0	0
713203	2.275000e+00	-9.925024e+01	-9.132529e-03	0	0
715156	2.275000e+00	-1.170216e+02	1.898253e-01	0	0
717109	2.274823e+00	-1.163675e+02	-2.041613e+00	0	0
719063	2.274178e+00	-1.432387e+02	-9.757765e+00	0	0
721016	2.275000e+00	-1.512230e+02	8.142654e-01	0	0
722969	2.275000e+00	-1.645556e+02	-5.493229e-01	0	0
724922	2.275000e+00	-1.738298e+02	-2.165949e-02	0	0
726875	2.274822e+00	-1.860860e+02	-7.680834e-01	0	0
728828	2.274000e+00	-1.950556e+02	1.752516e+00	0	0
730781	2.274000e+00	-1.937535e+02	1.015931e+01	0	0
732734	2.274000e+00	-1.932124e+02	-1.456548e+00	0	0
734688	2.274000e+00	-1.961221e+02	6.219545e-01	0	0
736641	2.274000e+00	-1.984700e+02	-1.974985e+00	0	0
738594	2.274000e+00	-1.978847e+02	-9.466342e+00	0	0
740547	2.274000e+00	-2.056124e+02	5.757927e-01	0	0
742500	2.274000e+00	-2.134159e+02	-8.115822e-01	0	0
744453	2.274000e+00	-2.290471e+02	-1.809882e-01	0	0
746406	2.274000e+00	-2.208384e+02	-1.054157e-01	0	0
748359	2.274000e+00	-2.265078e+02	9.517112e-01	0	0
750313	2.274000e+00	-2.230534e+02	4.254529e+00	0	0
752266	2.274000e+00	-2.146146e+02	-2.027600e-01	0	0
754219	2.274000e+00	-2.139144e+02	3.903921e-01	0	0
756172	2.274000e+00	-2.232622e+02	2.687260e-01	0	0
758125	2.274000e+00	-2.234124e+02	3.352204e-01	0	0
760078	2.274000e+00	-2.355501e+02	3.478373e-01	0	0
762031	2.274000e+00	-2.269123e+02	3.713395e-01	0	0
763984	2.274000e+00	-2.302801e+02	3.882769e-01	0	0
765938	2.274000e+00	-2.378338e+02	4.032645e-01	0	0
767891	2.274000e+00	-2.301184e+02	4.148727e-01	0	0
769844	2.274000e+00	-2.410762e+02	4.237279e-01	0	0
771797	2.273821e+00	-2.378233e+02	4.283415e-01	0	0
773750	2.273179e+00	-2.304400e+02	4.336978e-01	0	0
775703	2.274000e+00	-2.294017e+02	4.429786e-01	0	0
777656	2.273821e+00	-2.291463e+02	4.238383e-01	0	0
779609	2.273000e+00	-2.368129e+02	4.163253e-01	0	0
781563	2.273180e+00	-2.407034e+02	4.030091e-01	0	0
783516	2.273820e+00	-2.351170e+02	3.843024e-01	0	0
785469	2.273000e+00	-2.360848e+02	3.692265e-01	0	0
787422	2.273000e+00	-2.391257e+02	3.220540e-01	0	0
789375	2.273000e+00	-2.355071e+02	3.797172e-01	0	0
791328	2.273000e+00	-2.239796e+02	6.601548e-01	0	0
793281	2.273000e+00	-2.365525e+02	1.575033e-01	0	0
795234	2.273000e+00	-2.307620e+02	3.913756e-01	0	0
797188	2.273000e+00	-2.724981e+02	-5.114675e-01	0	0
799141	2.273000e+00	-3.036504e+02	-3.331251e+00	0	0
801094	2.273000e+00	-3.065053e+02	4.616705e-01	0	0
803047	2.273000e+00	-3.037385e+02	-1.081213e-01	0	0
805000	2.273000e+00	-2.743922e+02	1.134076e-01	0	0
806953	2.273000e+00	-1.953288e+02	-5.158644e-01	0	0
808906	2.273000e+00	-1.175246e+02	1.504927e+00	0	0
810859	2.273000e+00	4.640040e+00	8.286833e+00	0	0
812813	2.273000e+00	1.309273e+02	-1.281299e+00	0	0
814766	2.273000e+00	2.878866e+02	4.629777e-01	0	0
816719	2.273000e+00	5.261770e+02	-1.997298e+00	0	0
818672	2.273000e+00	7.630109e+02	-8.895674e+00	0	0
820625	2.273000e+00	1.001977e+03	7.300670e-01	0	0
822578	2.273000e+00	1.257200e+03	-5.042078e-01	0	0
824531	2.273000e+00	1.499307e+03	-8.243631e-02	0	0
826484	2.273000e+00	1.679975e+03	-5.345139e-01	0	0
828438	2.272819e+00	1.656606e+03	8.921554e-01	0	0
830391	2.272000e+00	1.543561e+03	5.475647e+00	0	0
832344	2.272000e+00	1.331978e+03	-9.111499e-01	0	0
834297	2.272000e+00	1.012471e+03	1.468847e-01	0	0
836250	2.272000e+00	8.404414e+02	-1.066657e+00	0	0
838203	2.272000e+00	6.217915e+02	-4.256056e+00	0	0
840156	2.272000e+00	4.730873e+02	2.189233e-01	0	0
842109	2.272000e+00	2.545753e+02	-3.563008e-01	0	0
844063	2.272000e+00	-3.996941e+01	-1.552008e-01	0	0
846016	2.272000e+00	-1.788137e+02	-3.835535e-01	0	0
847969	2.272000e+00	-2.709919e+02	3.478406e-01	0	0
849922	2.272000e+00	-3.233272e+02	2.694683e+00	0	0
851875	2.272000e+00	-3.337052e+02	-5.832935e-01	0	0
853828	2.272000e+00	-3.222059e+02	-1.020413e-02	0	0
855781	2.272000e+00	-3.040765e+02	-7.491001e-01	0	0
857734	2.272000e+00	-2.818061e+02	-2.755903e+00	0	0
859688	2.272000e+00	-2.424631e+02	5.658420e-02	0	0
861641	2.272000e+00	-2.164030e+02	-3.113250e-01	0	0
863594	2.272000e+00	-1.984009e+02	-1.652147e-01	0	0
865547	2.272000e+00	-1.847304e+02	-3.809636e-01	0	0
867500	2.272000e+00	-1.774175e+02	3.554468e-01	0	0
869453	2.272000e+00	-1.795969e+02	2.686944e+00	0	0
871406	2.272000e+00	-1.730069e+02	-5.259318e-01	0	0
873359	2.272000e+00	-1.650324e+02	-2.227151e-01	0	0
875313	2.272000e+00	-1.649071e+02	6.851080e-02	0	0
877266	2.272000e+00	-1.648619e+02	-1.439469e+00	0	0
879219	2.272000e+00	-1.693846e+02	-6.382149e+00	0	0
881172	2.272000e+00	-1.700857e+02	4.717030e-01	0	0
883125	2.272000e+00	-1.806584e+02	-4.516923e-01	0	0
885078	2.271818e+00	-1.805062e+02	-1.014298e-02	0	0
887031	2.271000e+00	-1.851055e+02	-8.521302e-01	0	0
888984	2.271000e+00	-1.872527e+02	2.152824e+00	0	0
890938	2.271000e+00	-1.819924e+02	1.183828e+01	0	0
892891	2.271000e+00	-1.765745e+02	-1.743381e+00	0	0
894844	2.271000e+00	-1.649218e+02	8.155818e-01	0	0
896797	2.271000e+00	-1.560762e+02	-2.965044e+00	0	0
898750	2.271000e+00	-1.682953e+02	-1.346089e+01	0	0
900703	2.271000e+00	-1.591240e+02	1.135776e+00	0	0
902656	2.271000e+00	-1.672333e+02	-8.118549e-01	0	0
904609	2.271000e+00	-1.616523e+02	-1.551246e-01	0	0
906563	2.271000e+00	-1.535170e+02	-1.060553e+00	0	0
908516	2.271000e+00	-1.596831e+02	1.779651e+00	0	0
910469	2.271000e+00	-1.498922e+02	1.082252e+01	0	0
912422	2.271000e+00	-1.448450e+02	-1.893445e+00	0	0
914375	2.271000e+00	-1.380120e+02	2.108011e-01	0	0
916328	2.271000e+00	-1.393036e+02	-2.228642e+00	0	0
918281	2.271000e+00	-1.368005e+02	-8.484187e+00	0	0
920234	2.271000e+00	-1.391591e+02	3.217578e-01	0	0
922188	2.271000e+00	-1.423331e+02	-8.024508e-01	0	0
924141	2.271000e+00	-1.435182e+02	-4.832795e-01	0	0
926094	2.271000e+00	-1.333629e+02	-6.362553e-01	0	0
928047	2.271000e+00	-1.288275e+02	-3.273643e-01	0	0
930000	2.271000e+00	-1.241878e+02	5.715746e-01	0	0
931953	2.271000e+00	-1.165342e+02	-6.711364e-01	0	0
933906	2.271000e+00	-1.088796e+02	-5.034705e-01	0	0
935859	2.271000e+00	-1.099801e+02	-5.357045e-01	0	0
937813	2.270816e+00	-1.170502e+02	-5.121757e-01	0	0
939766	2.270000e+00	-1.196423e+02	-5.013735e-01	0	0
941719	2.270184e+00	-1.158431e+02	-4.849095e-01	0	0
943672	2.270816e+00	-1.170462e+02	-4.675965e-01	0	0
945625	2.270000e+00	-1.174342e+02	-4.485843e-01	0	0
947578	2.270000e+00	-1.072988e+02	-4.269309e-01	0	0
949531	2.270000e+00	-1.086713e+02	-4.075769e-01	0	0
951484	2.270000e+00	-9.460435e+01	-3.715463e-01	0	0
953438	2.270000e+00	-9.038197e+01	-3.896704e-01	0	0
955391	2.270000e+00	-7.201312e+01	-1.973440e-01	0	0
957344	2.270000e+00	-7.010429e+01	-7.998989e-01	0	0
959297	2.270000e+00	-7.058804e+01	-2.758556e+00	0	0
961250	2.270000e+00	-6.096648e+01	5.237107e-02	0	0
963203	2.270000e+00	-6.763505e+01	-3.260823e-01	0	0
965156	2.270000e+00	-7.101186e+01	-7.128621e-02	0	0
967109	2.270000e+00	-7.194123e+01	-6.987578e-01	0	0
969063	2.270000e+00	-6.146807e+01	1.624701e+00	0	0
971016	2.270000e+00	-6.274282e+01	8.964054e+00	0	0
972969	2.270000e+00	-5.414082e+01	-1.389795e+00	0	0
974922	2.270000e+00	-4.643455e+01	5.970122e-01	0	0
976875	2.270000e+00	-4.000696e+01	-2.373565e+00	0	0
978828	2.270000e+00	-4.642087e+01	-1.046036e+01	0	0
980781	2.270000e+00	-4.647128e+01	8.949858e-01	0	0
982734	2.270000e+00	-4.472661e+01	-9.220878e-01	0	0
984688	2.270000e+00	-3.919692e+01	-3.864235e-01	0	0
986641	2.270000e+00	-3.315473e+01	-6.763422e-01	0	0
988594	2.269815e+00	-2.569662e+01	1.197709e+00	0	0
990547	2.269000e+00	-9.951892e+00	6.732174e+00	0	0
992500	2.269000e+00	1.475806e+00	-1.053039e+00	0	0
994453	2.269000e+00	1.598170e+01	2.038533e-01	0	0
996406	2.269185e+00	1.736028e+01	-1.086525e+00	0	0
998359	2.269815e+00	2.018459e+01	-4.213609e+00	0	0
1000313	2.269000e+00	2.490492e+01	2.365897e-01	0	0
1002266	2.269000e+00	3.031653e+01	-3.501605e-01	0	0
1004219	2.269000e+00	3.196960e+01	-1.274676e-01	0	0
1006172	2.269000e+00	4.062714e+01	-2.443365e-02	0	0
1008125	2.269000e+00	5.134721e+01	3.366569e-01	0	0
1010078	2.269000e+00	6.334519e+01	1.368907e+00	0	0
1012031	2.269000e+00	6.924157e+01	-3.552007e-01	0	0
1013984	2.269000e+00	8.021845e+01	-1.094014e-01	0	0
1015938	2.269000e+00	9.049644e+01	-4.755706e-01	0	0
1017891	2.269000e+00	8.894977e+01	-1.586059e+00	0	0
1019844	2.269000e+00	9.445977e+01	-3.878764e-01	0	0
1021797	2.269000e+00	1.014891e+02	-2.261083e-01	0	0
1023750	2.269000e+00	1.051626e+02	-1.785943e-01	0	0
1025703	2.269000e+00	1.153193e+02	-3.425933e-01	0	0
1027656	2.269000e+00	1.164829e+02	2.836443e-01	0	0
1029609	2.269000e+00	1.356410e+02	2.208823e+00	0	0
1031563	2.269000e+00	1.495858e+02	-4.721308e-01	0	0
1033516	2.269000e+00	1.571257e+02	-1.981964e-01	0	0
1035469	2.269000e+00	1.818654e+02	-1.356078e-02	0	0
1037422	2.269000e+00	1.895243e+02	-1.053978e+00	0	0
1039375	2.269000e+00	2.013854e+02	-4.343927e+00	0	0
1041328	2.269000e+00	2.011168e+02	2.597959e-01	0	0
1043281	2.269000e+00	2.073917e+02	-3.542728e-01	0	0
1045234	2.269000e+00	2.192941e+02	-1.165022e-01	0	0
1047188	2.268813e+00	2.306563e+02	-4.491054e-01	0	0
1049141	2.268000e+00	2.453954e+02	1.738920e+00	0	0
1051094	2.268000e+00	2.478927e+02	6.368669e+00	0	0
1053047	2.268000e+00	2.733457e+02	-1.053332e+00	0	0
1055000	2.268000e+00	2.880207e+02	3.926987e-01	0	0
1056953	2.268000e+00	2.922139e+02	-1.839650e+00	0	0
1058906	2.268000e+00	3.002119e+02	-7.861430e+00	0	0
1060859	2.268000e+00	3.061475e+02	6.625509e-01	0	0
1062813	2.268000e+00	3.158940e+02	-4.736983e-01	0	0
1064766	2.268000e+00	3.276985e+02	-3.359042e-02	0	0
1066719	2.268000e+00	3.395088e+02	-6.553570e-01	0	0
1068672	2.268000e+00	3.415705e+02	1.449769e+00	0	0
1070625	2.268000e+00	3.579595e+02	7.871194e+00	0	0
1072578	2.268000e+00	3.699801e+02	-1.225836e+00	0	0
1074531	2.268000e+00	3.920468e+02	4.119780e-01	0	0
1076484	2.268000e+00	4.061329e+02	-1.730836e+00	0	0
1078438	2.268000e+00	4.115162e+02	-7.243681e+00	0	0
1080391	2.268000e+00	4.053399e+02	5.917546e-01	0	0
1082344	2.268000e+00	3.893380e+02	-4.343043e-01	0	0
1084297	2.268000e+00	3.913846e+02	-1.093321e-01	0	0
1086250	2.268000e+00	3.815528e+02	-3.822110e-01	0	0
1088203	2.268000e+00	3.700161e+02	4.064606e-01	0	0
1090156	2.268000e+00	3.633179e+02	2.752221e+00	0	0
1092109	2.268000e+00	3.535827e+02	-5.624519e-01	0	0
1094063	2.267811e+00	3.421171e+02	-5.117847e-02	0	0
1096016	2.267189e+00	3.192553e+02	-4.908681e-01	0	0
1097969	2.268000e+00	3.000907e+02	-1.609302e+00	0	0
1099922	2.267811e+00	2.693660e+02	-4.036612e-01	0	0
1101875	2.267000e+00	2.415662e+02	-2.124393e-01	0	0
1103828	2.267000e+00	2.146335e+02	-1.913807e-01	0	0
1105781	2.267000e+00	1.919013e+02	-2.661589e-01	0	0
1107734	2.267000e+00	1.727780e+02	2.075440e-02	0	0
1109688	2.267000e+00	1.454261e+02	8.832300e-01	0	0
1111641	2.267000e+00	1.190007e+02	-3.215826e-01	0	0
1113594	2.267000e+00	1.031480e+02	-2.103052e-01	0	0
1115547	2.267000e+00	8.197247e+01	-7.641491e-02	0	0
1117500	2.267000e+00	6.265350e+01	-7.409422e-01	0	0
1119453	2.267000e+00	3.824475e+01	-2.772525e+00	0	0
1121406	2.267000e+00	7.457766e+00	6.887253e-02	0	0
1123359	2.267000e+00	-8.787642e+00	-2.130281e-01	0	0
1125313	2.267000e+00	-3.364279e+01	-4.517741e-01	0	0
1127266	2.267000e+00	-4.713966e+01	8.366664e-01	0	0
1129219	2.267000e+00	-5.590473e+01	8.062242e+00	0	0
1131172	2.267000e+00	-6.117018e+01	6.071487e+00	0	0
1133125	2.267000e+00	-6.775540e+01	-9.537908e-01	0	0
1135078	2.267000e+00	-7.607702e+01	5.328105e-01	0	0
1137031	2.267000e+00	-8.782381e+01	-2.484123e+00	0	0
1138984	2.267000e+00	-9.857628e+01	-1.090181e+01	0	0
1140938	2.267000e+00	-1.110400e+02	1.032068e+00	0	0
1142891	2.267000e+00	-1.280921e+02	-5.774331e-01	0	0
1144844	2.267000e+00	-1.356286e+02	5.340855e-02	0	0
1146797	2.266810e+00	-1.410690e+02	-8.594531e-01	0	0
1148750	2.266190e+00	-1.523444e+02	2.248548e+00	0	0
1150703	2.267000e+00	-1.443367e+02	1.154394e+01	0	0
1152656	2.266810e+00	-1.314188e+02	-1.687331e+00	0	0
1154609	2.266190e+00	-1.233297e+02	6.859802e-01	0	0
1156563	2.266810e+00	-1.271976e+02	-2.353499e+00	0	0
1158516	2.266000e+00	-1.254550e+02	-9.940476e+00	0	0
1160469	2.266000e+00	-1.314289e+02	9.147708e-01	0	0
1162422	2.266000e+00	-1.321578e+02	-5.111747e-01	0	0
1164375	2.266000e+00	-1.395275e+02	-8.420795e-02	0	0
1166328	2.266000e+00	-1.512806e+02	-3.651333e-01	0	0
1168281	2.266000e+00	-1.666865e+02	3.519882e-01	0	0
1170234	2.266000e+00	-1.691921e+02	2.402307e+00	0	0
1172188	2.266000e+00	-1.535908e+02	-5.008374e-01	0	0
1174141	2.266000e+00	-1.527961e+02	-1.211347e-01	0	0
1176094	2.266000e+00	-1.476341e+02	-2.226568e-01	0	0
1178047	2.266000e+00	-1.559504e+02	-1.952376e-01	0	0
1180000	2.266000e+00	-1.511512e+02	-2.023671e-01	0	0
1181953	2.266000e+00	-1.574157e+02	-2.002393e-01	0	0
1183906	2.266000e+00	-1.664647e+02	-2.005917e-01	0	0
1185859	2.266000e+00	-1.641645e+02	-2.002790e-01	0	0
1187813	2.266000e+00	-1.715471e+02	-2.001450e-01	0	0
1189766	2.266000e+00	-1.679270e+02	-1.999601e-01	0	0
1191719	2.266000e+00	-1.583960e+02	-1.997994e-01	0	0
1193672	2.266000e+00	-1.645030e+02	-1.995914e-01	0	0
1195625	2.266000e+00	-1.597129e+02	-1.995474e-01	0	0
1197578	2.266000e+00	-1.636535e+02	-1.988933e-01	0	0
1199531	2.266000e+00	-1.657572e+02	-2.005143e-01	0	0
1201484	2.266000e+00	-1.597134e+02	-1.936445e-01	0	0
1203438	2.266000e+00	-1.544251e+02	-2.185184e-01	0	0
1205391	2.266000e+00	-1.468162e+02	-1.248105e-01	0	0
1207344	2.266000e+00	-1.452624e+02	-4.736956e-01	0	0
1209297	2.265808e+00	-1.408103e+02	8.676685e-01	0	0
1211250	2.265000e+00	-1.385053e+02	4.899227e+00	0	0
1213203	2.265000e+00	-1.284850e+02	-9.121758e-01	0	0
1215156	2.265000e+00	-1.266271e+02	4.428708e-01	0	0
1217109	2.265000e+00	-1.311780e+02	-2.112628e+00	0	0
1219063	2.265000e+00	-1.413635e+02	-9.011406e+00	0	0
1221016	2.265000e+00	-1.408021e+02	8.330615e-01	0	0
1222969	2.265000e+00	-1.399400e+02	-5.166348e-01	0	0
1224922	2.265000e+00	-1.416121e+02	5.147295e-02	0	0
1226875	2.265000e+00	-1.450110e+02	-8.702017e-01	0	0
1228828	2.265000e+00	-1.389228e+02	2.340885e+00	0	0
1230781	2.265000e+00	-1.253953e+02	1.178570e+01	0	0
1232734	2.265000e+00	-1.218827e+02	-1.737895e+00	0	0
1234688	2.265000e+00	-1.112967e+02	7.769222e-01	0	0
1236641	2.265000e+00	-1.052106e+02	-2.627067e+00	0	0
1238594	2.265000e+00	-1.128754e+02	-1.108230e+01	0	0
1240547	2.265000e+00	-1.190806e+02	1.066986e+00	0	0
1242500	2.265000e+00	-1.217917e+02	-5.503710e-01	0	0
1244453	2.265000e+00	-1.280190e+02	-3.689386e-02	0	0
1246406	2.265000e+00	-1.228661e+02	-4.723996e-01	0	0
1248359	2.265000e+00	-1.190527e+02	7.927014e-01	0	0
1250313	2.265000e+00	-1.098585e+02	4.409171e+00	0	0
1252266	2.265000e+00	-9.792743e+01	-7.553392e-01	0	0
1254219	2.265000e+00	-9.555312e+01	5.175284e-02	0	0
1256172	2.265000e+00	-9.671672e+01	-6.311539e-01	0	0
1258125	2.265000e+00	-9.633938e+01	-2.044768e+00	0	0
1260078	2.265000e+00	-1.006622e+02	2.087069e-02	0	0
1262031	2.265000e+00	-1.024204e+02	-2.551222e-01	0	0
1263984	2.264807e+00	-1.118780e+02	-1.610803e-01	0	0
1265938	2.264194e+00	-1.100099e+02	-2.603715e-01	0	0
1267891	2.264806e+00	-1.069570e+02	5.284153e-02	0	0
1269844	2.264000e+00	-9.747004e+01	9.402274e-01	0	0
1271797	2.264000e+00	-9.301998e+01	-3.174645e-01	0	0
1273750	2.264000e+00	-8.911554e+01	-1.832456e-01	0	0
1275703	2.264000e+00	-8.453449e+01	-1.037827e-01	0	0
1277656	2.264000e+00	-9.600845e+01	-5.685674e-01	0	0
1279609	2.264000e+00	-1.024600e+02	-1.954860e+00	0	0
1281563	2.264000e+00	-1.044282e+02	1.276461e-02	0	0
1283516	2.264000e+00	-1.075113e+02	-2.425441e-01	0	0
1285469	2.264000e+00	-1.167783e+02	-1.913796e-01	0	0
1287422	2.264000e+00	-1.091472e+02	-1.259695e-01	0	0
1289375	2.264000e+00	-1.058752e+02	2.721243e+00	0	0
1291328	2.264000e+00	-1.079658e+02	5.163172e+00	0	0
1293281	2.264000e+00	-1.037991e+02	-9.244502e-01	0	0
1295234	2.264000e+00	-9.707889e+01	5.095790e-01	0	0
1297188	2.264000e+00	-1.077494e+02	-2.339573e+00	0	0
1299141	2.264000e+00	-1.111263e+02	-9.923554e+00	0	0
1301094	2.264000e+00	-1.035767e+02	9.600231e-01	0	0
1303047	2.264000e+00	-1.044193e+02	-5.532520e-01	0	0
1305000	2.264000e+00	-1.075749e+02	1.151332e-01	0	0
1306953	2.264000e+00	-1.022949e+02	-1.044023e+00	0	0
1308906	2.264000e+00	-9.477521e+01	3.044439e+00	0	0
1310859	2.264000e+00	-9.435293e+01	1.485710e+01	0	0
1312813	2.264000e+00	-8.867852e+01	-2.158179e+00	0	0
1314766	2.263805e+00	-8.018864e+01	1.094178e+00	0	0
1316719	2.263195e+00	-8.125935e+01	-3.466176e+00	0	0
1318672	2.263805e+00	-9.598601e+01	-1.468118e+01	0	0
1320625	2.263000e+00	-9.607378e+01	1.512472e+00	0	0
1322578	2.263000e+00	-1.027805e+02	-6.838067e-01	0	0
1324531	2.263000e+00	-1.113971e+02	-9.157171e-03	0	0
1326484	2.263000e+00	-1.078970e+02	-6.430859e-01	0	0
1328438	2.263000e+00	-1.166628e+02	1.490939e+00	0	0
1330391	2.263000e+00	-1.189164e+02	7.515912e+00	0	0
1332344	2.263000e+00	-1.093574e+02	-1.138522e+00	0	0
1334297	2.263000e+00	-1.008327e+02	2.461904e-01	0	0
1336250	2.263000e+00	-1.125453e+02	-9.939600e-01	0	0
1338203	2.263000e+00	-1.093839e+02	-3.580863e+00	0	0
1340156	2.263000e+00	-1.077909e+02	2.094176e-01	0	0
1342109	2.263000e+00	-1.198968e+02	-2.942359e-01	0	0
1344063	2.263000e+00	-1.241587e+02	-1.481124e-01	0	0
1346016	2.263000e+00	-1.259517e+02	-2.277436e-01	0	0
1347969	2.263000e+00	-1.221036e+02	-4.937885e-02	0	0
1349922	2.263000e+00	-1.201506e+02	4.338760e-01	0	0
1351875	2.263000e+00	-1.073097e+02	-2.680235e-01	0	0
1353828	2.263000e+00	-1.020146e+02	-1.816617e-01	0	0
1355781	2.263000e+00	-9.235293e+01	-4.088866e-01	0	0
1357734	2.263000e+00	-8.063277e+01	-8.523012e-01	0	0
1359688	2.263000e+00	-8.260909e+01	-3.404204e-01	0	0
1361641	2.263000e+00	-7.123199e+01	-4.742154e-01	0	0
1363594	2.263000e+00	-3.218863e+01	-4.368644e-01	0	0
1365547	2.263000e+00	-1.752728e+01	-6.794710e-01	0	0
1367500	2.263000e+00	-1.508436e+01	9.765703e-02	0	0
1369453	2.262804e+00	7.048148e+00	2.550907e+00	0	0
1371406	2.262196e+00	1.327756e+01	-1.158964e-01	0	0
1373359	2.263000e+00	3.110936e+01	1.823053e-01	0	0
1375313	2.262803e+00	2.959713e+01	4.078177e-01	0	0
1377266	2.262000e+00	3.894518e+01	-2.107432e+00	0	0
1379219	2.262000e+00	4.357091e+01	-8.338433e+00	0	0
1381172	2.262000e+00	4.354343e+01	4.606535e-01	0	0
1383125	2.262000e+00	5.927048e+01	-7.460333e-01	0	0
1385078	2.262000e+00	6.578365e+01	-1.135615e-01	0	0
1387031	2.262000e+00	7.449345e+01	-1.178275e+00	0	0
1388984	2.262000e+00	8.328972e+01	2.857813e+00	0	0
1390938	2.262000e+00	1.003308e+02	1.421974e+01	0	0
1392891	2.262000e+00	1.111020e+02	-2.102736e+00	0	0
1394844	2.262000e+00	1.087744e+02	1.105685e+00	0	0
1396797	2.262000e+00	1.092009e+02	-3.530544e+00	0	0
1398750	2.262000e+00	1.190668e+02	-1.485068e+01	0	0
1400703	2.262000e+00	1.383507e+02	1.438195e+00	0	0
1402656	2.262000e+00	1.524369e+02	-6.644123e-01	0	0
1404609	2.262000e+00	1.406718e+02	7.553033e-02	0	0
1406563	2.262000e+00	1.409512e+02	-7.187351e-01	0	0
1408516	2.262000e+00	1.373214e+02	1.795108e+00	0	0
1410469	2.262000e+00	1.419464e+02	8.758918e+00	0	0
1412422	2.262000e+00	1.394171e+02	-1.317780e+00	0	0
1414375	2.262000e+00	1.279345e+02	4.234049e-01	0	0
1416328	2.262000e+00	1.251181e+02	-1.496700e+00	0	0
1418281	2.262000e+00	1.218124e+02	-5.779437e+00	0	0
1420234	2.262000e+00	1.172988e+02	4.843323e-01	0	0
1422188	2.262000e+00	9.940259e+01	-3.711559e-01	0	0
1424141	2.262000e+00	7.003481e+01	-6.991835e-02	0	0
1426094	2.261802e+00	3.965214e+01	-4.172282e-01	0	0
1428047	2.261198e+00	1.510293e+01	7.053074e-01	0	0
1430000	2.261802e+00	-1.055729e+00	3.776885e+00	0	0
1431953	2.261000e+00	-1.820829e+01	-6.287244e-01	0	0
1433906	2.261000e+00	-1.806486e+01	-1.142807e-01	0	0
1435859	2.261000e+00	-3.297308e+01	2.353326e-02	0	0
1437813	2.261000e+00	-5.312522e+01	-1.078168e+00	0	0
1439766	2.261000e+00	-7.646502e+01	-4.257113e+00	0	0
1441719	2.261000e+00	-9.433501e+01	2.856014e-01	0	0
1443672	2.261000e+00	-9.752487e+01	-2.205074e-01	0	0
1445625	2.261000e+00	-1.032772e+02	-4.600630e-01	0	0
1447578	2.261000e+00	-1.082797e+02	1.052526e+00	0	0
1449531	2.261000e+00	-1.053421e+02	5.365879e+00	0	0
1451484	2.261000e+00	-1.067433e+02	-7.931653e-01	0	0
1453438	2.261000e+00	-1.163231e+02	-8.078022e-02	0	0
1455391	2.261000e+00	-1.083531e+02	3.900976e-01	0	0
1457344	2.261000e+00	-9.957862e+01	-1.940571e+00	0	0
1459297	2.261000e+00	-1.140129e+02	-8.681422e+00	0	0
1461250	2.261000e+00	-1.252437e+02	1.140383e+00	0	0
1463203	2.261000e+00	-1.314964e+02	-1.926218e-01	0	0
1465156	2.261000e+00	-1.482629e+02	4.330128e-01	0	0
1467109	2.261000e+00	-1.500244e+02	-5.041317e-01	0	0
1469063	2.261000e+00	-1.576276e+02	2.932420e+00	0	0
1471016	2.261000e+00	-1.502708e+02	1.238882e+01	0	0
1472969	2.261000e+00	-1.514733e+02	-1.349500e+00	0	0
1474922	2.261000e+00	-1.494869e+02	1.369317e+00	0	0
1476875	2.261000e+00	-1.561658e+02	-2.531434e+00	0	0
1478828	2.261000e+00	-1.555752e+02	-1.182826e+01	0	0
1480781	2.261000e+00	-1.577297e+02	1.718747e+00	0	0
1482734	2.260800e+00	-1.473895e+02	-1.696627e-01	0	0
1484688	2.260000e+00	-1.406840e+02	4.724282e-01	0	0
1486641	2.260200e+00	-1.572726e+02	-3.708246e-01	0	0
1488594	2.260800e+00	-1.545502e+02	1.982151e+00	0	0
1490547	2.260000e+00	-1.539261e+02	8.791859e+00	0	0
1492500	2.260000e+00	-1.527936e+02	-1.420928e+00	0	0
1494453	2.260000e+00	-1.414559e+02	3.631032e-01	0	0
1496406	2.260000e+00	-1.434587e+02	-1.753473e+00	0	0
1498359	2.260000e+00	-1.446279e+02	-6.510760e+00	0	0
1500313	2.260000e+00	-1.485259e+02	5.851378e-01	0	0
1502266	2.260000e+00	-1.593342e+02	-3.849298e-01	0	0
1504219	2.260000e+00	-1.616425e+02	-6.685598e-02	0	0
1506172	2.260000e+00	-1.725711e+02	-3.679146e-01	0	0
1508125	2.260000e+00	-1.687274e+02	5.471529e-01	0	0
1510078	2.260000e+00	-1.622109e+02	3.007707e+00	0	0
1512031	2.260000e+00	-1.511122e+02	-5.691403e-01	0	0
1513984	2.260000e+00	-1.449460e+02	1.295877e-02	0	0
1515938	2.260000e+00	-1.454969e+02	-5.101714e-01	0	0
1517891	2.260000e+00	-1.658917e+02	-1.544696e+00	0	0
1519844	2.260000e+00	-2.097026e+02	-1.579273e-02	0	0
1521797	2.260000e+00	-2.317379e+02	-2.589493e-02	0	0
1523750	2.260000e+00	-2.365504e+02	7.771495e-01	0	0
1525703	2.260000e+00	-2.136793e+02	1.302043e+00	0	0
1527656	2.260000e+00	-1.677370e+02	1.738489e+00	0	0
1529609	2.260000e+00	-9.475143e+01	2.033379e+00	0	0
1531563	2.260000e+00	-6.315976e+00	2.211444e+00	0	0
1533516	2.260000e+00	8.885454e+01	2.228833e+00	0	0
1535469	2.260000e+00	2.035584e+02	2.244866e+00	0	0
1537422	2.260000e+00	3.785043e+02	1.679250e+00	0	0
1539375	2.259799e+00	6.357470e+02	6.896560e-01	0	0
1541328	2.259000e+00	9.044817e+02	2.116177e+00	0	0
1543281	2.259000e+00	1.156165e+03	5.159108e-01	0	0
1545234	2.259000e+00	1.402713e+03	-9.232075e-02	0	0
1547188	2.259000e+00	1.657080e+03	-6.135888e-01	0	0
1549141	2.259000e+00	1.836364e+03	1.623151e+00	0	0
1551094	2.259000e+00	1.797456e+03	7.825222e+00	0	0
1553047	2.259000e+00	1.687270e+03	-1.297629e+00	0	0
1555000	2.259000e+00	1.445742e+03	7.615049e-01	0	0
1556953	2.259000e+00	1.116599e+03	-2.841528e+00	0	0
1558906	2.259000e+00	9.167379e+02	-1.187771e+01	0	0
1560859	2.259000e+00	7.143186e+02	2.968210e-01	0	0
1562813	2.259000e+00	5.283520e+02	-1.903274e+00	0	0
1564766	2.259000e+00	2.202683e+02	-1.279833e+00	0	0
1566719	2.259000e+00	-8.817789e+01	-2.180081e+00	0	0
1568672	2.259000e+00	-2.164273e+02	2.064402e+00	0	0
1570625	2.259000e+00	-2.594957e+02	1.277029e+01	0	0
1572578	2.259000e+00	-2.757047e+02	-1.951990e+00	0	0
1574531	2.259000e+00	-2.370431e+02	8.831017e-01	0	0
1576484	2.259000e+00	-2.051731e+02	-3.150173e+00	0	0
1578438	2.259000e+00	-1.799736e+02	-1.238402e+01	0	0
1580391	2.259000e+00	-1.332339e+02	1.126841e+00	0	0
1582344	2.259000e+00	-1.125813e+02	-7.656428e-01	0	0
1584297	2.259000e+00	-8.835125e+01	-1.362104e-01	0	0
1586250	2.259000e+00	-7.785709e+01	-8.217897e-01	0	0
1588203	2.259000e+00	-6.594747e+01	1.334365e+00	0	0
1590156	2.258797e+00	-7.042113e+01	7.058978e+00	0	0
1592109	2.258203e+00	-6.805313e+01	-1.298951e+00	0	0
1594063	2.259000e+00	-6.636560e+01	1.819545e-01	0	0
1596016	2.258797e+00	-6.724306e+01	-1.397652e+00	0	0
1597969	2.258203e+00	-7.055159e+01	-4.762134e+00	0	0
1599922	2.259000e+00	-7.612188e+01	2.935806e-01	0	0
1601875	2.258797e+00	-8.279256e+01	-3.697340e-01	0	0
1603828	2.258203e+00	-8.609847e+01	-1.016460e-01	0	0
1605781	2.258797e+00	-8.295042e+01	-3.164362e-01	0	0
1607734	2.258000e+00	-8.904964e+01	4.183645e-01	0	0
1609688	2.258000e+00	-8.216012e+01	2.349793e+00	0	0
1611641	2.258000e+00	-7.106379e+01	-4.633306e-01	0	0
1613594	2.258000e+00	-7.070313e+01	-7.244498e-02	0	0
1615547	2.258000e+00	-5.812092e+01	-2.073450e-01	0	0
1617500	2.258000e+00	-6.265383e+01	-1.493832e+00	0	0
1619453	2.258000e+00	-6.641856e+01	-2.579351e+00	0	0
1621406	2.258000e+00	-6.433277e+01	1.195639e-01	0	0
1623359	2.258000e+00	-7.637929e+01	-2.277606e-01	0	0
1625313	2.258000e+00	-7.338631e+01	-1.559325e-01	0	0
1627266	2.258000e+00	-7.374890e+01	-7.961392e-02	0	0
1629219	2.258000e+00	-6.384268e+01	2.590757e+00	0	0
1631172	2.258000e+00	-5.510912e+01	4.613554e+00	0	0
1633125	2.258000e+00	-4.591336e+01	-8.322792e-01	0	0
1635078	2.258000e+00	-4.787514e+01	4.801108e-01	0	0
1637031	2.258000e+00	-4.860714e+01	-2.104930e+00	0	0
1638984	2.258000e+00	-4.260350e+01	-8.430718e+00	0	0
1640938	2.258000e+00	-4.021357e+01	8.585585e-01	0	0
1642891	2.258000e+00	-3.789449e+01	-4.788963e-01	0	0
1644844	2.258000e+00	-4.565852e+01	1.217432e-01	0	0
1646797	2.258000e+00	-4.474890e+01	-9.421369e-01	0	0
1648750	2.257795e+00	-4.210225e+01	2.834732e+00	0	0
1650703	2.257000e+00	-3.285935e+01	1.285900e+01	0	0
1652656	2.257000e+00	-3.119559e+01	-1.927366e+00	0	0
1654609	2.257000e+00	-9.330399e+00	1.023728e+00	0	0
1656563	2.257000e+00	-1.839170e+01	-3.223128e+00	0	0
1658516	2.257000e+00	-1.789369e+01	-1.286138e+01	0	0
1660469	2.257000e+00	-1.069943e+01	1.392071e+00	0	0
1662422	2.257000e+00	-2.431582e+01	-5.998897e-01	0	0
1664375	2.257000e+00	-1.829659e+01	8.434973e-02	0	0
1666328	2.257000e+00	-1.926117e+01	-6.594462e-01	0	0
1668281	2.257000e+00	-1.855272e+01	1.707866e+00	0	0
1670234	2.257000e+00	-1.028315e+01	7.875750e+00	0	0
1672188	2.257000e+00	1.299413e+00	-1.205462e+00	0	0
1674141	2.257000e+00	8.462970e+00	4.072291e-01	0	0
1676094	2.257000e+00	1.634862e+01	-1.392703e+00	0	0
1678047	2.257000e+00	1.430031e+01	-6.331734e+00	0	0
1680000	2.257000e+00	3.428886e+00	-1.850755e+00	0	0
1681953	2.257000e+00	9.000698e+00	-6.466387e-02	0	0
1683906	2.257000e+00	1.184296e+01	-1.047678e-01	0	0
1685859	2.257000e+00	1.938322e+01	-4.260407e-01	0	0
1687813	2.257000e+00	2.229022e+01	9.482290e-01	0	0
1689766	2.257000e+00	2.203326e+01	4.570158e+00	0	0
1691719	2.257000e+00	2.600284e+01	-7.342030e-01	0	0
1693672	2.257000e+00	3.720053e+01	3.636419e-02	0	0
1695625	2.257000e+00	5.161860e+01	-3.335235e-01	0	0
1697578	2.257000e+00	5.368736e+01	-3.307077e+00	0	0
1699531	2.257000e+00	4.675330e+01	-5.140670e+00	0	0
1701484	2.257000e+00	4.910259e+01	4.325965e-01	0	0
1703438	2.256793e+00	5.927872e+01	-3.386798e-01	0	0
1705391	2.256207e+00	5.494232e+01	2.370901e-02	0	0
1707344	2.256793e+00	6.102178e+01	-6.525196e-01	0	0
1709297	2.256000e+00	7.261238e+01	1.770223e+00	0	0
1711250	2.256000e+00	8.033199e+01	8.121100e+00	0	0
1713203	2.256000e+00	8.695367e+01	-1.313519e+00	0	0
1715156	2.256000e+00	9.361505e+01	7.241878e-01	0	0
1717109	2.256000e+00	9.449031e+01	-2.638272e+00	0	0
1719063	2.256000e+00	9.980062e+01	-1.029486e+01	0	0
1721016	2.256000e+00	1.019591e+02	1.100768e+00	0	0
1722969	2.256000e+00	1.045559e+02	-5.266810e-01	0	0
1724922	2.256000e+00	1.104287e+02	1.205856e-01	0	0
1726875	2.256000e+00	1.232232e+02	-8.398092e-01	0	0
1728828	2.256000e+00	1.381152e+02	2.463329e+00	0	0
1730781	2.256000e+00	1.518309e+02	1.101646e+01	0	0
1732734	2.256000e+00	1.614235e+02	-1.657477e+00	0	0
1734688	2.256000e+00	1.675941e+02	7.890696e-01	0	0
1736641	2.256000e+00	1.778506e+02	-2.466446e+00	0	0
1738594	2.256000e+00	1.849641e+02	-9.547596e+00	0	0
1740547	2.256000e+00	1.804428e+02	1.006126e+00	0	0
1742500	2.256000e+00	1.868304e+02	-4.745502e-01	0	0
1744453	2.256000e+00	1.897555e+02	-3.230573e-01	0	0
1746406	2.256000e+00	1.938643e+02	-9.105033e-01	0	0
1748359	2.256000e+00	2.070710e+02	6.905878e-01	0	0
1750313	2.256000e+00	2.341382e+02	3.093248e+00	0	0
1752266	2.256000e+00	2.488294e+02	-5.556348e-01	0	0
1754219	2.256000e+00	2.649547e+02	2.652183e-02	0	0
1756172	2.256000e+00	2.795967e+02	-4.268228e-01	0	0
1758125	2.256000e+00	2.876259e+02	-1.212447e+00	0	0
1760078	2.256000e+00	2.910695e+02	-1.299392e-02	0	0
1762031	2.255792e+00	2.955857e+02	-1.814286e-01	0	0
1763984	2.255000e+00	3.146744e+02	-1.221938e-01	0	0
1765938	2.255208e+00	3.296823e+02	-1.895961e-01	0	0
1767891	2.255792e+00	3.322214e+02	2.944279e-02	0	0
1769844	2.255000e+00	3.391976e+02	6.204602e-01	0	0
1771797	2.255000e+00	3.589073e+02	-1.323036e-01	0	0
1773750	2.255000e+00	3.741974e+02	9.708114e-02	0	0
1775703	2.255000e+00	4.007516e+02	-1.792518e-01	0	0
1777656	2.255000e+00	4.031691e+02	-1.116900e+00	0	0
1779609	2.255000e+00	4.113283e+02	-3.471302e-01	0	0
1781563	2.255000e+00	4.210949e+02	2.101517e-02	0	0
1783516	2.255000e+00	4.322790e+02	-9.520533e-02	0	0
1785469	2.255000e+00	4.465809e+02	-1.106485e-01	0	0
1787422	2.255000e+00	4.559939e+02	-2.636884e-01	0	0
1789375	2.255000e+00	4.744772e+02	1.191605e+00	0	0
1791328	2.255000e+00	4.905737e+02	3.613462e+00	0	0
1793281	2.255000e+00	4.987270e+02	-6.995523e-01	0	0
1795234	2.255000e+00	5.103662e+02	3.877093e-01	0	0
1797188	2.255000e+00	5.151801e+02	-1.762391e+00	0	0
1799141	2.255000e+00	5.163624e+02	-6.796001e+00	0	0
1801094	2.255000e+00	5.229498e+02	6.913610e-01	0	0
1803047	2.255000e+00	5.228252e+02	-4.044070e-01	0	0
1805000	2.255000e+00	5.231725e+02	9.111083e-02	0	0
1806953	2.255000e+00	5.161097e+02	-7.939619e-01	0	0
1808906	2.255000e+00	5.158943e+02	2.357257e+00	0	0
1810859	2.255000e+00	5.042553e+02	1.038384e+01	0	0
1812813	2.254790e+00	4.877272e+02	-1.589490e+00	0	0
1814766	2.254210e+00	4.801349e+02	8.003960e-01	0	0
1816719	2.255000e+00	4.549566e+02	-2.538280e+00	0	0
1818672	2.255000e+00	4.294541e+02	-9.925008e+00	0	0
1820625	2.255000e+00	4.002573e+02	4.577947e-01	0	0
1822578	2.254790e+00	3.577756e+02	-1.441369e+00	0	0
1824531	2.254000e+00	3.273544e+02	-1.100740e+00	0	0
1826484	2.254000e+00	2.991542e+02	-4.283377e-01	0	0
1828438	2.254000e+00	2.685177e+02	6.333443e-01	0	0
1830391	2.254000e+00	2.502288e+02	3.082019e+00	0	0
1832344	2.254000e+00	2.297991e+02	-5.426908e-01	0	0
1834297	2.254000e+00	2.138700e+02	3.847411e-03	0	0
1836250	2.254000e+00	1.875822e+02	-2.918901e-01	0	0
1838203	2.254000e+00	1.553968e+02	-3.224211e-01	0	0
1840156	2.254000e+00	1.274918e+02	1.017909e+00	0	0
1842109	2.254000e+00	1.042090e+02	1.055824e+00	0	0
1844063	2.254000e+00	7.815442e+01	1.087413e+00	0	0
1846016	2.254000e+00	5.323661e+01	7.251987e-01	0	0
1847969	2.254000e+00	4.438942e+01	3.488118e-01	0	0
1849922	2.254000e+00	4.146874e+01	4.986948e-01	0	0
1851875	2.254000e+00	2.779110e+01	-2.219017e-01	0	0
1853828	2.254000e+00	1.619355e+01	-6.190817e-02	0	0
1855781	2.254000e+00	2.935712e+00	-3.424550e-01	0	0
1857734	2.254000e+00	-9.643675e+00	-9.855838e-01	0	0
1859688	2.254000e+00	-1.675583e+01	-1.011490e-02	0	0
1861641	2.254000e+00	-2.333490e+01	4.004776e-02	0	0
1863594	2.254000e+00	-3.343549e+01	4.350021e-01	0	0
1865547	2.254000e+00	-4.209775e+01	4.786537e-01	0	0
1867500	2.254000e+00	-4.641972e+01	6.887311e-01	0	0
1869453	2.254000e+00	-4.713206e+01	1.636558e+00	0	0
1871406	2.253789e+00	-4.397087e+01	2.632284e-01	0	0
1873359	2.253211e+00	-4.080922e+01	6.980180e-01	0	0
1875313	2.253788e+00	-4.074436e+01	6.877779e-01	0	0
1877266	2.253000e+00	-4.236512e+01	-1.230080e+00	0	0
1879219	2.253000e+00	-4.027079e+01	-6.153348e+00	0	0
1881172	2.253000e+00	-5.282834e+01	-7.995301e-01	0	0
1883125	2.253000e+00	-6.442199e+01	7.905882e-01	0	0
1885078	2.253212e+00	-6.756149e+01	1.397750e+00	0	0
1887031	2.253788e+00	-7.000755e+01	-3.547176e-01	0	0
1888984	2.253000e+00	-7.167494e+01	2.715378e+00	0	0
1890938	2.253000e+00	-6.783688e+01	1.191618e+01	0	0
1892891	2.253000e+00	-6.422275e+01	-1.842369e+00	0	0
1894844	2.253000e+00	-5.239254e+01	1.087559e+00	0	0
1896797	2.253000e+00	-6.685059e+01	-3.425374e+00	0	0
1898750	2.253000e+00	-8.427713e+01	-1.367037e+01	0	0
1900703	2.253000e+00	-6.775323e+01	2.435629e-01	0	0
1902656	2.253000e+00	-6.948203e+01	-1.309258e+00	0	0
1904609	2.253000e+00	-7.813290e+01	-2.059058e-01	0	0
1906563	2.253000e+00	-7.331060e+01	-1.389060e+00	0	0
1908516	2.253000e+00	-8.830453e+01	1.404824e+00	0	0
1910469	2.253000e+00	-8.057387e+01	8.477561e+00	0	0
1912422	2.253000e+00	-7.173646e+01	-2.058315e+00	0	0
1914375	2.253000e+00	-7.681667e+01	1.852971e-01	0	0
1916328	2.253000e+00	-7.528783e+01	-2.018774e+00	0	0
1918281	2.253000e+00	-7.977661e+01	-6.974155e+00	0	0
1920234	2.253000e+00	-7.536537e+01	7.276214e-01	0	0
1922188	2.253000e+00	-8.261772e+01	-3.764419e-01	0	0
1924141	2.253000e+00	-8.562992e+01	1.675245e-02	0	0
1926094	2.253000e+00	-7.655623e+01	-4.501998e-01	0	0
1928047	2.253000e+00	-7.830234e+01	9.693826e-01	0	0
1930000	2.253000e+00	-7.525786e+01	4.540629e+00	0	0
1931953	2.253000e+00	-6.924166e+01	-9.830745e-01	0	0
1933906	2.252787e+00	-6.027887e+01	5.283429e-02	0	0
1935859	2.252000e+00	-5.860627e+01	-1.470269e+00	0	0
1937813	2.252000e+00	-6.966908e+01	-4.585954e+00	0	0
1939766	2.252000e+00	-6.693127e+01	3.251238e-02	0	0
1941719	2.252000e+00	-6.310020e+01	-6.740430e-01	0	0
1943672	2.252000e+00	-6.673795e+01	-4.279968e-01	0	0
1945625	2.252000e+00	-7.647711e+01	-7.023287e-01	0	0
1947578	2.252000e+00	-7.191493e+01	7.104357e-01	0	0
1949531	2.252000e+00	-6.857364e+01	3.718493e+00	0	0
1951484	2.252000e+00	-5.806131e+01	-8.887233e-01	0	0
1953438	2.252000e+00	-5.245496e+01	-5.082738e-01	0	0
1955391	2.252000e+00	-5.327117e+01	-1.761011e-01	0	0
1957344	2.252000e+00	-5.704681e+01	-1.828654e+00	0	0
1959297	2.252000e+00	-6.794124e+01	-6.024201e+00	0	0
1961250	2.252000e+00	-6.413890e+01	3.863230e-01	0	0
1963203	2.252000e+00	-6.186414e+01	-4.860568e-01	0	0
1965156	2.252000e+00	-6.570830e+01	3.313808e-02	0	0
1967109	2.252000e+00	-6.954578e+01	-7.117383e-01	0	0
1969063	2.252000e+00	-6.415233e+01	2.154659e+00	0	0
1971016	2.252000e+00	-5.664919e+01	9.172581e+00	0	0
1972969	2.252000e+00	-4.856410e+01	-1.452567e+00	0	0
1974922	2.252000e+00	-4.274929e+01	8.267242e-01	0	0
1976875	2.252000e+00	-3.774881e+01	-2.690964e+00	0	0
1978828	2.252000e+00	-4.709239e+01	-1.017453e+01	0	0
1980781	2.252000e+00	-4.442647e+01	1.127340e+00	0	0
1982734	2.252000e+00	-4.587905e+01	-4.931261e-01	0	0
1984688	2.252000e+00	-4.410014e+01	1.129687e-01	0	0
1986641	2.252000e+00	-4.864832e+01	-6.791258e-01	0	0
1988594	2.251785e+00	-5.327532e+01	1.976582e+00	0	0
1990547	2.251000e+00	-5.210050e+01	8.366137e+00	0	0
1992500	2.251000e+00	-4.437183e+01	-1.287592e+00	0	0
1994453	2.251000e+00	-4.526065e+01	5.591689e-01	0	0
1996406	2.251000e+00	-3.866730e+01	-1.731790e+00	0	0
1998359	2.251000e+00	-3.548966e+01	-6.297068e+00	0	0
2000313	2.251000e+00	-4.655253e+01	6.583556e-01	0	0
2002266	2.251000e+00	-3.753157e+01	-3.344566e-01	0	0
2004219	2.251000e+00	-4.686137e+01	-3.037609e-02	0	0
2006172	2.251000e+00	-5.196905e+01	-2.523318e-01	0	0
2008125	2.251000e+00	-5.413325e+01	4.128130e-01	0	0
2010078	2.251000e+00	-3.505691e+01	1.997208e+00	0	0
2012031	2.251000e+00	-3.734790e+01	-1.028785e-04	0	0
2013984	2.251000e+00	-2.703078e+01	2.798669e-01	0	0
2015938	2.251000e+00	-1.956798e+01	1.036775e-01	0	0
2017891	2.251000e+00	-2.908166e+01	-2.748897e-02	0	0
2019844	2.251000e+00	-3.744950e+01	-1.252018e-01	0	0
2021797	2.251000e+00	-4.467744e+01	-1.139255e-01	0	0
2023750	2.251000e+00	-4.754697e+01	-1.166702e-01	0	0
2025703	2.251000e+00	-5.401858e+01	-1.157406e-01	0	0
2027656	2.251000e+00	-4.988483e+01	-1.154873e-01	0	0
2029609	2.251000e+00	-3.658232e+01	-1.162035e-01	0	0
2031563	2.251000e+00	-3.647310e+01	-1.123580e-01	0	0
2033516	2.251000e+00	-3.326237e+01	-1.258023e-01	0	0
2035469	2.251000e+00	-2.429991e+01	-7.464709e-02	0	0
2037422	2.251000e+00	-3.620387e+01	-2.716523e-01	0	0
2039375	2.251000e+00	-3.611184e+01	-7.465122e-01	0	0
2041328	2.251000e+00	-4.177636e+01	-2.633284e-02	0	0
2043281	2.251000e+00	-4.019591e+01	-1.664106e-01	0	0
2045234	2.251000e+00	-4.502348e+01	7.888091e-03	0	0
2047188	2.250783e+00	-5.059974e+01	-5.491186e-01	0	0
2049141	2.250000e+00	-4.153176e+01	1.583433e+00	0	0
2051094	2.250000e+00	-4.052706e+01	6.738095e+00	0	0
2053047	2.250000e+00	-3.479455e+01	-1.143050e+00	0	0
2055000	2.250000e+00	-2.444396e+01	7.485844e-01	0	0
2056953	2.250000e+00	-2.527985e+01	-2.638824e+00	0	0
2058906	2.250000e+00	-3.693154e+01	-9.921077e+00	0	0
2060859	2.250000e+00	-4.301957e+01	1.139297e+00	0	0
2062813	2.250000e+00	-5.037529e+01	-4.940500e-01	0	0
2064766	2.250000e+00	-5.611885e+01	1.634761e-01	0	0
2066719	2.250000e+00	-5.285015e+01	-8.304682e-01	0	0
2068672	2.250000e+00	-5.549718e+01	2.612152e+00	0	0
2070625	2.250000e+00	-4.813418e+01	1.077052e+01	0	0
2072578	2.250000e+00	-4.533585e+01	-1.650987e+00	0	0
2074531	2.250000e+00	-4.113524e+01	8.804210e-01	0	0
2076484	2.250000e+00	-3.939427e+01	-2.645150e+00	0	0
2078438	2.250000e+00	-4.914917e+01	-9.757838e+00	0	0
2080391	2.250000e+00	-5.259537e+01	1.115701e+00	0	0
2082344	2.250000e+00	-5.558294e+01	-4.563685e-01	0	0
2084297	2.250000e+00	-6.184496e+01	5.015455e-02	0	0
2086250	2.250000e+00	-6.250050e+01	-4.026538e-01	0	0
2088203	2.250000e+00	-5.699024e+01	9.511209e-01	0	0
2090156	2.250000e+00	-5.531893e+01	4.077290e+00	0	0
2092109	2.250000e+00	-4.990039e+01	-6.648620e-01	0	0
2094063	2.250000e+00	-5.069915e+01	1.296977e-01	0	0
2096016	2.250000e+00	-4.735151e+01	-5.226226e-01	0	0
2097969	2.250000e+00	-5.946233e+01	-1.582371e+00	0	0
2099922	2.250000e+00	-5.790103e+01	7.821384e-02	0	0
2101875	2.250000e+00	-5.295840e+01	-1.591232e-01	0	0
2103828	2.250000e+00	-6.025079e+01	-8.915487e-02	0	0
2105781	2.249781e+00	-6.660156e+01	-1.304749e-01	0	0
2107734	2.249000e+00	-7.131848e+01	-3.050892e-02	0	0
2109688	2.249000e+00	-6.689308e+01	1.897341e-01	0	0
2111641	2.249000e+00	-6.735191e+01	-1.409324e-01	0	0
2113594	2.249000e+00	-6.140028e+01	-1.109127e-01	0	0
2115547	2.249000e+00	-5.338555e+01	-5.555249e-02	0	0
2117500	2.249000e+00	-5.464320e+01	-3.153997e-01	0	0
2119453	2.249000e+00	-6.582328e+01	-9.350876e-01	0	0
2121406	2.249000e+00	-6.627396e+01	5.005076e-03	0	0
2123359	2.249000e+00	-6.151401e+01	-1.543865e-01	0	0
2125313	2.249000e+00	-4.276661e+01	-2.131523e-02	0	0
2127266	2.249000e+00	-4.762658e+01	-3.931078e-01	0	0
2129219	2.249000e+00	-2.453148e+01	1.013840e+00	0	0
2131172	2.249000e+00	3.984495e+01	4.354472e+00	0	0
2133125	2.249000e+00	6.818232e+01	-7.999197e-01	0	0
2135078	2.249000e+00	7.375590e+01	5.356659e-01	0	0
2137031	2.249000e+00	9.339399e+01	-2.057283e+00	0	0
2138984	2.249000e+00	9.537626e+01	-7.603804e+00	0	0
2140938	2.249000e+00	9.576376e+01	8.646601e-01	0	0
2142891	2.249000e+00	9.568918e+01	-4.076495e-01	0	0
2144844	2.249000e+00	8.918337e+01	1.440042e-01	0	0
2146797	2.249000e+00	8.306462e+01	-7.890874e-01	0	0
2148750	2.249000e+00	9.218094e+01	2.513643e+00	0	0
2150703	2.249000e+00	1.122885e+02	1.020172e+01	0	0
2152656	2.249000e+00	1.332912e+02	-1.577899e+00	0	0
2154609	2.249000e+00	1.421372e+02	8.636258e-01	0	0
2156563	2.249000e+00	1.393062e+02	-2.608809e+00	0	0
2158516	2.249000e+00	1.511115e+02	-9.485585e+00	0	0
2160469	2.249000e+00	1.408924e+02	1.099852e+00	0	0
2162422	2.249000e+00	1.358185e+02	-4.402262e-01	0	0
2164375	2.248779e+00	1.431511e+02	5.120592e-02	0	0
2166328	2.248000e+00	1.602538e+02	-3.732442e-01	0	0
2168281	2.248000e+00	1.749914e+02	8.794256e-01	0	0
2170234	2.248000e+00	1.862256e+02	3.705469e+00	0	0
2172188	2.248000e+00	1.960223e+02	-6.031932e-01	0	0
2174141	2.248000e+00	2.101319e+02	8.879749e-02	0	0
2176094	2.248000e+00	2.042733e+02	-3.653067e-01	0	0
2178047	2.248000e+00	2.022816e+02	-9.852547e-01	0	0
2180000	2.248000e+00	1.870918e+02	1.229416e-02	0	0
2181953	2.248000e+00	1.666691e+02	-1.296804e-01	0	0
2183906	2.248000e+00	1.581536e+02	-9.138477e-02	0	0
2185859	2.248000e+00	1.542403e+02	-1.013920e-01	0	0
2187813	2.248000e+00	1.526695e+02	-9.845638e-02	0	0
2189766	2.248000e+00	1.328565e+02	-9.898887e-02	0	0
2191719	2.248000e+00	1.193258e+02	-9.859690e-02	0	0
2193672	2.248000e+00	1.024171e+02	-9.843263e-02	0	0
2195625	2.248000e+00	8.313473e+01	-9.828247e-02	0	0
2197578	2.248000e+00	6.031216e+01	-9.784865e-02	0	0
2199531	2.248000e+00	3.892308e+01	-9.853584e-02	0	0
2201484	2.248000e+00	9.156448e+00	-9.502319e-02	0	0
2203438	2.248000e+00	-1.447412e+01	-1.072137e-01	0	0
2205391	2.248000e+00	-2.864837e+01	-6.074984e-02	0	0
2207344	2.248000e+00	-4.638478e+01	-2.332094e-01	0	0
2209297	2.248000e+00	-4.688129e+01	4.362256e-01	0	0
2211250	2.248000e+00	-5.349130e+01	1.948518e+00	0	0
2213203	2.248000e+00	-4.981068e+01	-6.402153e-01	0	0
2215156	2.248000e+00	-4.879478e+01	2.542962e-01	0	0
2217109	2.248000e+00	-6.719867e+01	-1.518229e+00	0	0
2219063	2.248000e+00	-7.687619e+01	-5.547400e+00	0	0
2221016	2.248000e+00	-8.235030e+01	6.154544e-01	0	0
2222969	2.248000e+00	-9.164626e+01	-3.203834e-01	0	0
2224922	2.247777e+00	-9.117608e+01	9.340120e-02	0	0
2226875	2.247000e+00	-9.540959e+01	-6.146388e-01	0	0
2228828	2.247000e+00	-1.028335e+02	3.555298e+00	0	0
2230781	2.247000e+00	-1.004515e+02	1.076052e+01	0	0
2232734	2.247000e+00	-9.732673e+01	-1.642302e+00	0	0
2234688	2.247000e+00	-8.508241e+01	9.150509e-01	0	0
2236641	2.247000e+00	-9.299055e+01	-2.699826e+00	0	0
2238594	2.247000e+00	-1.001082e+02	-9.725551e+00	0	0
2240547	2.247000e+00	-1.140193e+02	1.198950e+00	0	0
2242500	2.247000e+00	-1.200386e+02	-6.474242e-01	0	0
2244453	2.247000e+00	-1.223979e+02	-1.291765e+00	0	0
2246406	2.247000e+00	-1.242046e+02	-1.614382e+00	0	0
2248359	2.247000e+00	-1.232418e+02	9.098742e-01	0	0
2250313	2.247000e+00	-1.293360e+02	4.516734e+00	0	0
2252266	2.247000e+00	-1.172248e+02	-7.007755e-01	0	0
2254219	2.247000e+00	-1.096952e+02	1.136373e-01	0	0
2256172	2.247000e+00	-1.132542e+02	-3.207585e-01	0	0
2258125	2.247000e+00	-1.166358e+02	-1.526025e+00	0	0
2260078	2.247000e+00	-1.230023e+02	-1.384973e+00	0	0
2262031	2.247000e+00	-1.253377e+02	7.334572e-02	0	0
2263984	2.247000e+00	-1.195702e+02	2.201766e-01	0	0
2265938	2.247000e+00	-1.207691e+02	7.638127e-01	0	0
2267891	2.247000e+00	-1.267146e+02	1.111443e+00	0	0
2269844	2.247000e+00	-1.178968e+02	1.279491e+00	0	0
2271797	2.247000e+00	-1.157903e+02	6.510379e-02	0	0
2273750	2.247000e+00	-1.104805e+02	-6.785813e-02	0	0
2275703	2.246776e+00	-1.022405e+02	-1.781835e-01	0	0
2277656	2.246224e+00	-1.086688e+02	-5.795140e-01	0	0
2279609	2.247000e+00	-1.118604e+02	-3.341199e-01	0	0
2281563	2.246775e+00	-1.274743e+02	-6.436361e-02	0	0
2283516	2.246225e+00	-1.515743e+02	-9.934541e-02	0	0
2285469	2.247000e+00	-1.856904e+02	-7.428155e-02	0	0
2287422	2.246775e+00	-2.011585e+02	-1.383821e-01	0	0
2289375	2.246000e+00	-1.966925e+02	1.003697e-01	0	0
2291328	2.246000e+00	-1.769498e+02	1.805972e-01	0	0
2293281	2.246000e+00	-1.130011e+02	-1.094673e+00	0	0
2295234	2.246000e+00	-2.553969e+01	6.172864e-01	0	0
2297188	2.246000e+00	5.371676e+01	-1.147749e+00	0	0
2299141	2.246000e+00	1.405352e+02	-4.554156e+00	0	0
2301094	2.246000e+00	2.642688e+02	4.779252e-01	0	0
2303047	2.246000e+00	4.600735e+02	-1.754426e-01	0	0
2305000	2.246000e+00	7.361853e+02	1.267325e+00	0	0
2306953	2.246000e+00	9.824020e+02	7.063379e-01	0	0
2308906	2.246000e+00	1.235431e+03	3.646172e+00	0	0
2310859	2.246000e+00	1.507125e+03	1.147695e+01	0	0
2312813	2.246000e+00	1.754598e+03	-1.784891e+00	0	0
2314766	2.246000e+00	1.912789e+03	1.107308e+00	0	0
2316719	2.246000e+00	1.850204e+03	-3.314240e+00	0	0
2318672	2.246000e+00	1.746205e+03	-1.224735e+01	0	0
2320625	2.246000e+00	1.463496e+03	7.111249e-02	0	0
2322578	2.246000e+00	1.112544e+03	-2.132197e+00	0	0
2324531	2.246000e+00	9.253360e+02	-6.282115e-01	0	0
2326484	2.246000e+00	7.328600e+02	-9.193726e-01	0	0
2328438	2.246000e+00	5.395768e+02	1.144702e+00	0	0
2330391	2.246000e+00	1.819038e+02	6.251583e+00	0	0
2332344	2.246000e+00	-1.241007e+02	-1.769028e+00	0	0
2334297	2.246000e+00	-2.015697e+02	3.464526e-02	0	0
2336250	2.246000e+00	-2.355803e+02	-9.350789e-01	0	0
2338203	2.246000e+00	-2.139631e+02	-3.753575e+00	0	0
2340156	2.246000e+00	-1.926223e+02	8.725446e-01	0	0
2342109	2.246000e+00	-1.742882e+02	-2.944833e-01	0	0
2344063	2.246000e+00	-1.317027e+02	3.853316e-02	0	0
2346016	2.246000e+00	-1.040646e+02	-3.593836e-01	0	0
2347969	2.246000e+00	-7.380664e+01	9.499979e-01	0	0
2349922	2.245773e+00	-4.728874e+01	3.777591e+00	0	0
2351875	2.245000e+00	-2.941522e+01	-5.686356e-01	0	0
2353828	2.245000e+00	-1.978691e+01	-1.332074e-02	0	0
2355781	2.245000e+00	-2.206740e+01	1.276509e-01	0	0
2357734	2.245000e+00	-3.577158e+01	-1.036844e+00	0	0
2359688	2.245000e+00	-4.922930e+01	-3.660875e+00	0	0
2361641	2.245000e+00	-4.912238e+01	2.920973e-01	0	0
2363594	2.245000e+00	-5.089088e+01	-5.735431e-01	0	0
2365547	2.245000e+00	-5.470472e+01	-5.326606e-01	0	0
2367500	2.245000e+00	-5.131638e+01	1.157453e+00	0	0
2369453	2.245000e+00	-4.111896e+01	4.297014e+00	0	0
2371406	2.245000e+00	-4.428163e+01	-1.888217e-01	0	0
2373359	2.245000e+00	-3.613263e+01	4.309242e-02	0	0
2375313	2.245000e+00	-3.590150e+01	3.703463e-01	0	0
2377266	2.245000e+00	-5.140606e+01	-1.504985e+00	0	0
2379219	2.245000e+00	-4.643213e+01	-5.720282e+00	0	0
2381172	2.245000e+00	-4.832513e+01	1.879826e+00	0	0
2383125	2.245000e+00	-4.685500e+01	2.117795e+00	0	0
2385078	2.245000e+00	-4.647328e+01	2.474690e+00	0	0
2387031	2.245000e+00	-4.027656e+01	4.868477e-01	0	0
2388984	2.245000e+00	-3.625517e+01	2.975079e+00	0	0
2390938	2.245000e+00	-3.560550e+01	1.037945e+01	0	0
2392891	2.245000e+00	-1.997409e+01	-9.713347e-01	0	0
2394844	2.245000e+00	-2.792857e+01	1.630724e+00	0	0
2396797	2.245000e+00	-2.043113e+01	-2.391857e+00	0	0
2398750	2.245000e+00	-2.349860e+01	-1.133837e+01	0	0
2400703	2.245000e+00	-3.717713e+01	-1.627684e+00	0	0
2402656	2.245000e+00	-2.758501e+01	-2.984256e+00	0	0
2404609	2.245000e+00	-3.104134e+01	-8.882955e-01	0	0
2406563	2.245000e+00	-3.443551e+01	-4.788880e-02	0	0
2408516	2.244772e+00	-2.712724e+01	1.698580e+00	0	0
2410469	2.244000e+00	-1.323637e+01	5.580936e+00	0	0
2412422	2.244000e+00	-9.474064e+00	-2.604144e-01	0	0
2414375	2.244000e+00	4.604202e+00	1.081701e+00	0	0
2416328	2.244000e+00	8.059408e+00	1.695964e+00	0	0
2418281	2.244000e+00	3.054820e+00	3.143759e-01	0	0
2420234	2.244000e+00	3.916537e-01	2.483364e+00	0	0
2422188	2.244000e+00	4.179945e+00	1.508792e+00	0	0
2424141	2.244000e+00	4.359509e+00	8.324713e-01	0	0
2426094	2.244000e+00	-1.945620e+00	-2.441406e-02	0	0
2428047	2.244000e+00	3.092295e+00	1.385006e-01	0	0
2430000	2.244000e+00	1.093233e+01	7.244515e-01	0	0
2431953	2.244000e+00	2.118500e+01	-1.838753e-01	0	0
2433906	2.244000e+00	1.903225e+01	-3.121970e-02	0	0
2435859	2.244000e+00	2.039098e+01	-1.423635e-01	0	0
2437813	2.244000e+00	1.907739e+01	-3.225668e-01	0	0
2439766	2.244000e+00	1.290874e+01	1.084070e-02	0	0
2441719	2.244000e+00	1.988586e+01	3.474855e-01	0	0
2443672	2.244000e+00	2.596532e+01	6.701396e-01	0	0
2445625	2.244000e+00	2.817077e+01	8.551555e-01	0	0
2447578	2.244000e+00	3.535002e+01	9.012416e-01	0	0
2449531	2.244000e+00	4.468825e+01	1.008625e+00	0	0
2451484	2.244000e+00	4.489998e+01	8.967676e-01	0	0
2453438	2.244000e+00	5.438504e+01	5.399884e-01	0	0
2455391	2.244000e+00	6.101957e+01	3.406703e-01	0	0
2457344	2.244000e+00	6.370464e+01	-7.659163e-01	0	0
2459297	2.244000e+00	6.732172e+01	-2.540074e+00	0	0
2461250	2.244000e+00	6.441029e+01	2.624991e-01	0	0
2463203	2.244000e+00	6.083005e+01	-1.984656e-01	0	0
2465156	2.244000e+00	6.611623e+01	9.996565e-02	0	0
2467109	2.244000e+00	7.293545e+01	-6.316920e-01	0	0
2469063	2.243770e+00	7.120093e+01	2.112468e+00	0	0
2471016	2.243230e+00	8.646227e+01	8.045781e+00	0	0
2472969	2.243770e+00	9.616303e+01	-1.331428e+00	0	0
2474922	2.243000e+00	1.098080e+02	7.166333e-01	0	0
2476875	2.243000e+00	1.153622e+02	-3.192108e+00	0	0
2478828	2.243000e+00	1.093013e+02	-1.043666e+01	0	0
2480781	2.243000e+00	1.121300e+02	3.386180e-01	0	0
2482734	2.243000e+00	1.152989e+02	-1.330055e+00	0	0
2484688	2.243000e+00	1.152209e+02	-6.893086e-01	0	0
2486641	2.243000e+00	1.204823e+02	-1.475252e+00	0	0
2488594	2.243000e+00	1.279696e+02	1.788253e+00	0	0
2490547	2.243000e+00	1.351887e+02	8.585332e+00	0	0
2492500	2.243000e+00	1.505570e+02	-1.385514e+00	0	0
2494453	2.243000e+00	1.672180e+02	6.932744e-01	0	0
2496406	2.243000e+00	1.704978e+02	-1.914262e+00	0	0
2498359	2.243000e+00	1.796551e+02	-6.496800e+00	0	0
2500313	2.243000e+00	1.790021e+02	7.802349e-01	0	0
2502266	2.243000e+00	1.934102e+02	-3.005375e-01	0	0
2504219	2.243000e+00	2.010741e+02	1.224600e-02	0	0
2506172	2.243000e+00	1.973066e+02	-1.570458e-01	0	0
2508125	2.243000e+00	2.077242e+02	2.228221e-01	0	0
2510078	2.243000e+00	2.173244e+02	9.737192e-01	0	0
2512031	2.243000e+00	2.390779e+02	-1.994248e-01	0	0
2513984	2.243000e+00	2.489971e+02	1.104086e-01	0	0
2515938	2.243000e+00	2.619876e+02	3.358062e-01	0	0
2517891	2.243000e+00	2.730218e+02	5.031967e-01	0	0
2519844	2.243000e+00	2.882956e+02	5.900091e-01	0	0
2521797	2.243000e+00	2.991657e+02	6.346318e-01	0	0
2523750	2.243000e+00	2.919491e+02	6.377859e-01	0	0
2525703	2.243000e+00	3.029094e+02	5.986253e-01	0	0
2527656	2.243000e+00	3.256284e+02	5.185489e-01	0	0
2529609	2.243000e+00	3.381689e+02	3.905936e-01	0	0
2531563	2.243000e+00	3.543656e+02	2.354259e-01	0	0
2533516	2.243000e+00	3.831148e+02	-3.164431e-02	0	0
2535469	2.243000e+00	3.997205e+02	1.256303e-01	0	0
2537422	2.243000e+00	4.062121e+02	-8.441337e-01	0	0
2539375	2.243000e+00	4.218915e+02	-2.906959e+00	0	0
2541328	2.243000e+00	4.290500e+02	3.239625e-01	0	0
2543281	2.243000e+00	4.341687e+02	-2.094723e-01	0	0
2545234	2.242768e+00	4.440826e+02	1.265977e-01	0	0
2547188	2.242233e+00	4.560848e+02	-6.846600e-01	0	0
2549141	2.242767e+00	4.726576e+02	2.350082e+00	0	0
2551094	2.242000e+00	4.912467e+02	8.763817e+00	0	0
2553047	2.242000e+00	4.992994e+02	-1.417601e+00	0	0
2555000	2.242000e+00	5.212537e+02	9.472950e-01	0	0
2556953	2.242000e+00	5.356926e+02	-2.892654e+00	0	0
2558906	2.242000e+00	5.431922e+02	-9.983325e+00	0	0
2560859	2.242000e+00	5.489943e+02	1.263650e+00	0	0
2562813	2.242000e+00	5.478392e+02	-4.578705e-01	0	0
2564766	2.242000e+00	5.560980e+02	1.895277e-01	0	0
2566719	2.242000e+00	5.551604e+02	-6.760603e-01	0	0
2568672	2.242000e+00	5.649242e+02	2.258823e+00	0	0
2570625	2.242000e+00	5.677002e+02	8.350028e+00	0	0
2572578	2.242000e+00	5.586416e+02	-1.296521e+00	0	0
2574531	2.242000e+00	5.626009e+02	6.813396e-01	0	0
2576484	2.242000e+00	5.494234e+02	-1.922874e+00	0	0
2578438	2.242000e+00	5.259256e+02	-6.424352e+00	0	0
2580391	2.242000e+00	5.100914e+02	7.361933e-01	0	0
2582344	2.242000e+00	4.884468e+02	-3.453529e-01	0	0
2584297	2.242000e+00	4.607524e+02	3.661084e-02	0	0
2586250	2.242000e+00	4.376666e+02	-3.143579e-01	0	0
2588203	2.242000e+00	4.104612e+02	8.639435e-01	0	0
2590156	2.242000e+00	3.912723e+02	3.274289e+00	0	0
2592109	2.242000e+00	3.646498e+02	-5.513570e-01	0	0
2594063	2.242000e+00	3.376072e+02	2.397251e-01	0	0
2596016	2.242000e+00	3.192009e+02	-8.040879e-01	0	0
2597969	2.242000e+00	2.849382e+02	-2.608570e+00	0	0
2599922	2.242000e+00	2.534216e+02	2.830545e-01	0	0
2601875	2.242000e+00	2.203019e+02	-1.633929e-01	0	0
2603828	2.242000e+00	1.914961e+02	1.421725e-02	0	0
2605781	2.242000e+00	1.626453e+02	-2.487603e-01	0	0
2607734	2.242000e+00	1.377623e+02	6.636336e-01	0	0
2609688	2.242000e+00	1.234819e+02	2.513010e+00	0	0
2611641	2.241765e+00	1.108759e+02	-3.794902e-01	0	0
2613594	2.241000e+00	9.844524e+01	-5.466848e-02	0	0
2615547	2.241235e+00	8.874168e+01	2.479286e-01	0	0
2617500	2.241765e+00	7.214333e+01	-1.353739e+00	0	0
2619453	2.241000e+00	5.225120e+01	-4.725558e+00	0	0
2621406	2.241000e+00	3.568183e+01	5.802574e-01	0	0
2623359	2.241000e+00	2.483064e+01	-2.770926e-01	0	0
2625313	2.241235e+00	1.660557e+01	1.834181e-01	0	0
2627266	2.241765e+00	3.456031e+00	-8.004749e-01	0	0
2629219	2.241000e+00	7.761911e-01	2.825811e+00	0	0
2631172	2.241000e+00	1.102503e+00	1.033742e+01	0	0
2633125	2.241000e+00	1.196874e+00	-1.678294e+00	0	0
2635078	2.241000e+00	-1.390300e-01	1.203168e+00	0	0
2637031	2.241000e+00	-4.751179e+00	-3.655526e+00	0	0
2638984	2.241000e+00	-1.592016e+01	-1.252154e+01	0	0
2640938	2.241000e+00	-2.031088e+01	1.627592e+00	0	0
2642891	2.241000e+00	-2.456819e+01	-5.648805e-01	0	0
2644844	2.241000e+00	-2.569686e+01	2.966811e-01	0	0
2646797	2.241000e+00	-2.718136e+01	-9.561029e-01	0	0
2648750	2.241000e+00	-3.162052e+01	3.373556e+00	0	0
2650703	2.241000e+00	-2.540223e+01	1.220402e+01	0	0
2652656	2.241000e+00	-2.278874e+01	-1.878917e+00	0	0
2654609	2.241000e+00	-2.300056e+01	1.080604e+00	0	0
2656563	2.241000e+00	-2.063421e+01	-2.923147e+00	0	0
2658516	2.241000e+00	-2.489309e+01	-9.778781e+00	0	0
2660469	2.241000e+00	-3.874683e+01	1.251642e+00	0	0
2662422	2.241000e+00	-4.109178e+01	-4.190619e-01	0	0
2664375	2.241000e+00	-4.794950e+01	9.917151e-02	0	0
2666328	2.241000e+00	-4.183942e+01	-3.020898e-01	0	0
2668281	2.241000e+00	-4.230810e+01	8.317403e-01	0	0
2670234	2.241000e+00	-4.048034e+01	3.066167e+00	0	0
2672188	2.241000e+00	-3.083403e+01	-4.823870e-01	0	0
2674141	2.241000e+00	-3.595462e+01	9.669969e-02	0	0
2676094	2.241000e+00	-4.231310e+01	-2.318474e-01	0	0
2678047	2.241000e+00	-4.563806e+01	-5.704609e-01	0	0
2680000	2.241000e+00	-5.023347e+01	1.575415e-02	0	0
2681953	2.241000e+00	-4.940553e+01	-7.099326e-02	0	0
2683906	2.241000e+00	-4.885757e+01	-4.754619e-02	0	0
2685859	2.241000e+00	-5.056889e+01	-5.362609e-02	0	0
2687813	2.241000e+00	-5.913855e+01	-5.179505e-02	0	0
2689766	2.240763e+00	-5.473946e+01	-5.208094e-02	0	0
2691719	2.240237e+00	-5.173956e+01	-5.181421e-02	0	0
2693672	2.240763e+00	-4.632563e+01	-5.164115e-02	0	0
2695625	2.240237e+00	-4.405320e+01	-5.164749e-02	0	0
2697578	2.241000e+00	-5.670767e+01	-5.084397e-02	0	0
2699531	2.240763e+00	-5.057492e+01	-5.310205e-02	0	0
2701484	2.240000e+00	-5.500856e+01	-4.392470e-02	0	0
2703438	2.240000e+00	-5.160803e+01	-7.749205e-02	0	0
2705391	2.240000e+00	-6.086301e+01	4.859476e-02	0	0
2707344	2.240000e+00	-6.093353e+01	-4.191408e-01	0	0
2709297	2.240000e+00	-5.397741e+01	1.697772e+00	0	0
2711250	2.240000e+00	-5.480612e+01	5.683578e+00	0	0
2713203	2.240000e+00	-4.823264e+01	-1.010144e+00	0	0
2715156	2.240000e+00	-4.928767e+01	8.851832e-01	0	0
2717109	2.240000e+00	-5.025404e+01	-2.983071e+00	0	0
2719063	2.240000e+00	-5.110487e+01	-1.014587e+01	0	0
2721016	2.240000e+00	-6.023645e+01	1.332790e+00	0	0
2722969	2.240000e+00	-6.265219e+01	-4.890195e-01	0	0
2724922	2.240000e+00	-7.011300e+01	3.273669e-01	0	0
2726875	2.240000e+00	-7.107209e+01	-1.115456e+00	0	0
2728828	2.240000e+00	-6.306104e+01	4.060024e+00	0	0
2730781	2.240000e+00	-6.200166e+01	1.443769e+01	0	0
2732734	2.240000e+00	-5.465140e+01	-2.256934e+00	0	0
2734688	2.240000e+00	-5.055902e+01	1.444551e+00	0	0
2736641	2.240000e+00	-4.769703e+01	-4.013750e+00	0	0
2738594	2.240000e+00	-5.038544e+01	-1.335661e+01	0	0
2740547	2.240000e+00	-4.844694e+01	1.374140e+00	0	0
2742500	2.240000e+00	-5.802292e+01	-1.803258e+00	0	0
2744453	2.240000e+00	-5.544730e+01	-7.121343e-01	0	0
2746406	2.240000e+00	-5.617280e+01	-3.869421e-01	0	0
2748359	2.240000e+00	-5.937465e+01	1.553126e+00	0	0
2750313	2.240000e+00	-5.425182e+01	5.638090e+00	0	0
2752266	2.240000e+00	-4.186932e+01	-8.842602e-01	0	0
2754219	2.240000e+00	-3.358204e+01	4.201594e-01	0	0
2756172	2.240000e+00	-3.170695e+01	-7.861138e-02	0	0
2758125	2.240000e+00	-2.896371e+01	-1.465237e+00	0	0
2760078	2.240000e+00	-3.873619e+01	7.176704e-01	0	0
2762031	2.240000e+00	-4.946572e+01	-8.080612e-02	0	0
2763984	2.240000e+00	-6.463562e+01	7.332334e-03	0	0
2765938	2.240000e+00	-5.929708e+01	-1.749232e-01	0	0
2767891	2.240000e+00	-6.424515e+01	4.429069e-01	0	0
2769844	2.240000e+00	-5.946008e+01	1.664249e+00	0	0
2771797	2.240000e+00	-6.396856e+01	-3.188550e-01	0	0
2773750	2.240000e+00	-5.415728e+01	1.754439e-01	0	0
2775703	2.239760e+00	-3.757270e+01	-6.908480e-01	0	0
2777656	2.239000e+00	-4.426544e+01	-2.454799e+00	0	0
2779609	2.239240e+00	-3.951636e+01	-1.530733e-01	0	0
2781563	2.240000e+00	-4.339980e+01	-9.922515e-02	0	0
2783516	2.239759e+00	-5.350135e+01	7.127709e-02	0	0
2785469	2.239000e+00	-5.950957e+01	-4.537211e-01	0	0
2787422	2.239000e+00	-6.367968e+01	1.563648e+00	0	0
2789375	2.239000e+00	-5.498802e+01	5.483711e+00	0	0
2791328	2.239000e+00	-5.802732e+01	-7.538190e-01	0	0
2793281	2.239000e+00	-4.845555e+01	-6.824251e-03	0	0
2795234	2.239000e+00	-4.859997e+01	5.177039e-01	0	0
2797188	2.239000e+00	-5.215783e+01	-2.464464e+00	0	0
2799141	2.239000e+00	-4.292510e+01	-8.437016e+00	0	0
2801094	2.239000e+00	-4.805716e+01	1.114682e+00	0	0
2803047	2.239000e+00	-5.337552e+01	-4.012712e-01	0	0
2805000	2.239000e+00	-6.191317e+01	2.313008e-01	0	0
2806953	2.239000e+00	-6.516887e+01	-7.821780e-01	0	0
2808906	2.239000e+00	-6.330997e+01	2.794946e+00	0	0
2810859	2.239000e+00	-5.794910e+01	9.790227e+00	0	0
2812813	2.239000e+00	-6.039189e+01	-1.552451e+00	0	0
2814766	2.239000e+00	-5.318790e+01	9.673871e-01	0	0
2816719	2.239000e+00	-5.112600e+01	-2.711771e+00	0	0
2818672	2.239000e+00	-6.628359e+01	-8.847869e+00	0	0
2820625	2.239000e+00	-6.836564e+01	1.162632e+00	0	0
2822578	2.239000e+00	-6.612923e+01	-3.842087e-01	0	0
2824531	2.239000e+00	-7.600652e+01	1.236642e-01	0	0
2826484	2.239000e+00	-6.590633e+01	-3.601310e-01	0	0
2828438	2.239000e+00	-6.750131e+01	1.134938e+00	0	0
2830391	2.239000e+00	-6.717497e+01	3.976009e+00	0	0
2832344	2.239000e+00	-6.106394e+01	-6.242480e-01	0	0
2834297	2.239000e+00	-5.665276e+01	2.376035e-01	0	0
2836250	2.239000e+00	-5.620360e+01	-6.001938e-01	0	0
2838203	2.239000e+00	-6.351672e+01	-1.808694e+00	0	0
2840156	2.239000e+00	-6.888928e+01	2.011369e-01	0	0
2842109	2.239000e+00	-7.202025e+01	-1.093474e-01	0	0
2844063	2.239000e+00	-8.636539e+01	-5.821875e-03	0	0
2846016	2.239000e+00	-8.447666e+01	-1.085900e-01	0	0
2847969	2.239000e+00	-8.278826e+01	2.136096e-01	0	0
2849922	2.239000e+00	-8.232313e+01	8.172956e-01	0	0
2851875	2.239000e+00	-7.890234e+01	-1.526495e-01	0	0
2853828	2.239000e+00	-7.099738e+01	-2.504577e-02	0	0
2855781	2.239000e+00	-7.516562e+01	1.566403e-02	0	0
2857734	2.238757e+00	-8.207045e+01	-2.878095e-01	0	0
2859688	2.238244e+00	-8.117147e+01	-8.952316e-01	0	0
2861641	2.239000e+00	-8.196547e+01	8.124704e-02	0	0
2863594	2.239000e+00	-7.918588e+01	-8.071766e-02	0	0
2865547	2.239000e+00	-8.767857e+01	8.533325e-03	0	0
2867500	2.238756e+00	-9.603507e+01	-1.838852e-01	0	0
2869453	2.238000e+00	-9.188030e+01	7.707167e-01	0	0
2871406	2.238000e+00	-9.189492e+01	2.662345e+00	0	0
2873359	2.238000e+00	-8.737450e+01	4.436867e-01	0	0
2875313	2.238000e+00	-7.356690e+01	1.326698e+00	0	0
2877266	2.238000e+00	-8.004455e+01	-8.634904e-01	0	0
2879219	2.238000e+00	-8.146654e+01	-4.728808e+00	0	0
2881172	2.238000e+00	-8.161332e+01	6.275242e-01	0	0
2883125	2.238000e+00	-7.879023e+01	-2.612808e-01	0	0
2885078	2.238000e+00	-8.669395e+01	1.925362e-01	0	0
2887031	2.238000e+00	-8.765500e+01	-7.307367e-01	0	0
2888984	2.238000e+00	-8.661462e+01	2.976184e+00	0	0
2890938	2.238000e+00	-8.702935e+01	9.709959e+00	0	0
2892891	2.238000e+00	-7.584738e+01	-1.532091e+00	0	0
2894844	2.238000e+00	-7.338215e+01	9.176890e-01	0	0
2896797	2.238000e+00	-7.823912e+01	-3.591539e+00	0	0
2898750	2.238000e+00	-8.133109e+01	-1.054784e+01	0	0
2900703	2.238000e+00	-8.814751e+01	-1.171553e+00	0	0
2902656	2.238000e+00	-9.438199e+01	-4.199372e+00	0	0
2904609	2.238000e+00	-1.043514e+02	-3.191207e+00	0	0
2906563	2.238000e+00	-9.219840e+01	-2.147366e+00	0	0
2908516	2.238000e+00	-8.775145e+01	-3.870406e-01	0	0
2910469	2.238000e+00	-9.144517e+01	2.224052e+00	0	0
2912422	2.238000e+00	-7.298901e+01	-6.701390e-01	0	0
2914375	2.238000e+00	-5.712353e+01	1.391176e-01	0	0
2916328	2.238000e+00	-4.859354e+01	1.300738e-01	0	0
2918281	2.238000e+00	-2.990825e+01	4.823816e-01	0	0
2920234	2.238000e+00	-3.222743e+01	1.083155e+00	0	0
2922188	2.238000e+00	-1.012591e+01	6.553909e-01	0	0
2924141	2.238000e+00	1.124749e+01	2.096321e-01	0	0
2926094	2.238000e+00	2.110027e+01	-1.109176e-01	0	0
2928047	2.238000e+00	3.345711e+01	1.821839e-01	0	0
2930000	2.238000e+00	3.379274e+01	6.685370e-01	0	0
2931953	2.238000e+00	4.170244e+01	-1.290024e-01	0	0
2933906	2.238000e+00	4.624439e+01	-1.257925e-02	0	0
2935859	2.238000e+00	4.991908e+01	4.920403e-01	0	0
2937813	2.238000e+00	5.231548e+01	3.665212e-01	0	0
2939766	2.238000e+00	4.857325e+01	-4.832279e-01	0	0
2941719	2.238000e+00	6.166113e+01	1.960231e+00	0	0
2943672	2.238000e+00	7.309430e+01	1.990635e+00	0	0
2945625	2.238000e+00	6.314637e+01	1.832851e+00	0	0
2947578	2.238000e+00	8.410486e+01	3.327662e+00	0	0
2949531	2.238000e+00	9.629473e+01	6.001842e+00	0	0
2951484	2.237754e+00	9.769682e+01	1.237870e+00	0	0
2953438	2.237000e+00	1.053813e+02	1.400634e+00	0	0
2955391	2.237247e+00	1.169837e+02	1.442390e+00	0	0
2957344	2.238000e+00	1.336204e+02	-1.556682e+00	0	0
2959297	2.238000e+00	1.498297e+02	-6.756693e+00	0	0
2961250	2.238000e+00	1.569573e+02	9.191321e-01	0	0
2963203	2.237753e+00	1.337901e+02	-3.337191e-01	0	0
2965156	2.237247e+00	1.221342e+02	2.216681e-01	0	0
2967109	2.237753e+00	1.087854e+02	-7.463249e-01	0	0
2969063	2.237000e+00	1.155547e+02	2.735046e+00	0	0
2971016	2.237000e+00	1.283251e+02	9.227040e+00	0	0
2972969	2.237000e+00	1.101237e+02	-1.491114e+00	0	0
2974922	2.237000e+00	1.143081e+02	9.880518e-01	0	0
2976875	2.237000e+00	9.799746e+01	-2.803811e+00	0	0
2978828	2.237000e+00	9.793126e+01	-8.906406e+00	0	0
2980781	2.237000e+00	9.526847e+01	1.204212e+00	0	0
2982734	2.237000e+00	6.588312e+01	-3.875380e-01	0	0
2984688	2.237248e+00	3.118818e+01	1.592527e-01	0	0
2986641	2.237752e+00	8.036239e+00	-4.353914e-01	0	0
2988594	2.237000e+00	-1.694182e+01	1.483278e+00	0	0
2990547	2.237000e+00	-1.702845e+01	4.978327e+00	0	0
2992500	2.237000e+00	-2.899651e+01	-7.701861e-01	0	0
2994453	2.237000e+00	-4.752627e+01	3.246940e-01	0	0
2996406	2.237000e+00	-6.398687e+01	-7.496914e-01	0	0
2998359	2.237000e+00	-8.308413e+01	-2.232834e+00	0	0
3000313	2.237000e+00	-1.089943e+02	2.775527e-01	0	0
3002266	2.237000e+00	-1.209432e+02	-1.242426e-01	0	0
3004219	2.237000e+00	-1.282288e+02	-1.185226e-01	0	0
3006172	2.237000e+00	-1.392589e+02	-2.515163e-01	0	0
3008125	2.237000e+00	-1.273151e+02	-3.112330e-01	0	0
3010078	2.237000e+00	-1.330307e+02	-3.352181e-01	0	0
3012031	2.237000e+00	-1.318482e+02	-2.025759e-01	0	0
3013984	2.237000e+00	-1.375334e+02	-9.094673e-03	0	0
3015938	2.237000e+00	-1.407495e+02	-3.456710e-02	0	0
3017891	2.237000e+00	-1.531163e+02	-2.761940e-02	0	0
3019844	2.237000e+00	-1.483894e+02	-2.921065e-02	0	0
3021797	2.237000e+00	-1.608540e+02	-2.908506e-02	0	0
3023750	2.237000e+00	-1.645793e+02	-2.728756e-02	0	0
3025703	2.237000e+00	-1.735306e+02	-3.389468e-02	0	0
3027656	2.237000e+00	-1.736841e+02	-7.437561e-03	0	0
3029609	2.237000e+00	-1.596632e+02	2.897165e-02	0	0
3031563	2.237000e+00	-1.639076e+02	-1.370200e-02	0	0
3033516	2.237000e+00	-1.657393e+02	-1.129941e-01	0	0
3035469	2.237000e+00	-1.716148e+02	2.971034e-01	0	0
3037422	2.237000e+00	-1.622646e+02	-1.318033e+00	0	0
3039375	2.237000e+00	-1.687464e+02	-4.244077e+00	0	0
3041328	2.237000e+00	-1.760169e+02	5.409724e-01	0	0
3043281	2.237000e+00	-1.819005e+02	-9.844290e-02	0	0
3045234	2.237000e+00	-1.786868e+02	7.317391e-01	0	0
3047188	2.237000e+00	-1.795064e+02	-9.666074e-01	0	0
3049141	2.237000e+00	-1.904332e+02	3.402949e+00	0	0
3051094	2.237000e+00	-1.778988e+02	1.122589e+01	0	0
3053047	2.237000e+00	-1.800325e+02	-1.844364e+00	0	0
3055000	2.237000e+00	-1.819963e+02	1.339389e+00	0	0
3056953	2.237000e+00	-1.802713e+02	-3.892592e+00	0	0
3058906	2.237000e+00	-1.911671e+02	-1.225806e+01	0	0
3060859	2.237000e+00	-1.956884e+02	1.692931e+00	0	0
3062813	2.237000e+00	-2.018681e+02	-5.318979e-01	0	0
3064766	2.237000e+00	-1.973125e+02	2.751556e-01	0	0
3066719	2.237000e+00	-1.892469e+02	-7.259527e-01	0	0
3068672	2.237000e+00	-1.882712e+02	2.627189e+00	0	0
3070625	2.237000e+00	-1.868095e+02	8.628868e+00	0	0
3072578	2.237000e+00	-1.813147e+02	-1.335601e+00	0	0
3074531	2.237000e+00	-2.084965e+02	6.771596e-01	0	0
3076484	2.236749e+00	-2.415444e+02	-1.614538e+00	0	0
3078438	2.236000e+00	-2.613547e+02	-4.888641e+00	0	0
3080391	2.236000e+00	-2.503546e+02	6.551236e-01	0	0
3082344	2.236252e+00	-2.261814e+02	-2.111923e-01	0	0
3084297	2.236748e+00	-1.733429e+02	3.883387e-02	0	0
3086250	2.236000e+00	-7.161841e+01	-9.423417e-02	0	0
3088203	2.236000e+00	2.193884e+01	2.018401e-01	0	0
3090156	2.236000e+00	1.201914e+02	7.000333e-01	0	0
3092109	2.236000e+00	2.337087e+02	-1.297552e-01	0	0
3094063	2.236000e+00	4.300945e+02	1.696893e-02	0	0
3096016	2.236000e+00	6.877881e+02	-8.786965e-02	0	0
3097969	2.236000e+00	9.217731e+02	-2.050333e-01	0	0
3099922	2.236000e+00	1.175376e+03	2.656770e-03	0	0
3101875	2.236000e+00	1.408848e+03	-3.670643e-02	0	0
3103828	2.236000e+00	1.636707e+03	5.004462e-04	0	0
3105781	2.236000e+00	1.754895e+03	-1.082522e-01	0	0
3107734	2.236000e+00	1.678505e+03	3.098083e-01	0	0
3109688	2.236000e+00	1.572811e+03	1.040410e+00	0	0
3111641	2.236000e+00	1.278377e+03	-1.480498e-01	0	0
3113594	2.236000e+00	9.749986e+02	-7.988199e-02	0	0
3115547	2.236000e+00	7.876676e+02	3.282085e-01	0	0
3117500	2.236000e+00	6.072015e+02	-1.456723e+00	0	0
3119453	2.236000e+00	4.308245e+02	-4.661474e+00	0	0
3121406	2.236000e+00	1.562854e+02	6.449424e-01	0	0
3123359	2.236000e+00	-1.081232e+02	-2.545640e-01	0	0
3125313	2.236000e+00	-2.141040e+02	2.380113e-01	0	0
3127266	2.236000e+00	-2.801741e+02	-8.323120e-01	0	0
3129219	2.236000e+00	-3.197655e+02	3.145958e+00	0	0
3131172	2.236000e+00	-2.975744e+02	1.026277e+01	0	0
3133125	2.236000e+00	-2.691336e+02	-1.698848e+00	0	0
3135078	2.236000e+00	-2.419903e+02	1.245244e+00	0	0
3137031	2.236000e+00	-2.180449e+02	-3.621507e+00	0	0
3138984	2.236000e+00	-1.876143e+02	-1.123238e+01	0	0
3140938	2.236000e+00	-1.726432e+02	1.570912e+00	0	0
3142891	2.236000e+00	-1.606837e+02	-4.994231e-01	0	0
3144844	2.236000e+00	-1.339009e+02	2.981282e-01	0	0
3146797	2.236000e+00	-1.103558e+02	-8.210291e-01	0	0
3148750	2.236000e+00	-1.326172e+02	3.041779e+00	0	0
3150703	2.236000e+00	-1.282888e+02	9.839982e+00	0	0
3152656	2.236000e+00	-1.226475e+02	-1.569754e+00	0	0
3154609	2.236000e+00	-1.339734e+02	9.595886e-01	0	0
3156563	2.236000e+00	-1.421800e+02	-2.543087e+00	0	0
3158516	2.236000e+00	-1.325494e+02	-7.731811e+00	0	0
3160469	2.236000e+00	-1.489500e+02	1.072490e+00	0	0
3162422	2.236000e+00	-1.541216e+02	-3.344747e-01	0	0
3164375	2.236000e+00	-1.593306e+02	1.439355e-01	0	0
3166328	2.236000e+00	-1.470707e+02	-3.620178e-01	0	0
3168281	2.236000e+00	-1.448240e+02	1.260449e+00	0	0
3170234	2.236000e+00	-1.484297e+02	4.041532e+00	0	0
3172188	2.236000e+00	-1.330522e+02	-5.831370e-01	0	0
3174141	2.236000e+00	-1.313913e+02	9.151168e-02	0	0
3176094	2.236000e+00	-1.290325e+02	9.995018e-02	0	0
3178047	2.236000e+00	-1.378800e+02	-6.460959e-01	0	0
3180000	2.236000e+00	-1.455690e+02	-2.048922e+00	0	0
3181953	2.236000e+00	-1.552264e+02	2.633563e-01	0	0
3183906	2.236000e+00	-1.570106e+02	-7.511022e-02	0	0
3185859	2.236000e+00	-1.558858e+02	-7.647433e-02	0	0
3187813	2.236000e+00	-1.449503e+02	2.876074e-01	0	0
3189766	2.236000e+00	-1.405158e+02	9.694434e-01	0	0
3191719	2.236000e+00	-1.287025e+02	-1.536627e-01	0	0
3193672	2.236000e+00	-1.300873e+02	-4.244830e-04	0	0
3195625	2.236000e+00	-1.154717e+02	4.541122e-02	0	0
3197578	2.236000e+00	-1.330570e+02	-3.081606e-01	0	0
3199531	2.236000e+00	-1.503007e+02	-9.495651e-01	0	0
3201484	2.236000e+00	-1.300349e+02	1.189843e-01	0	0
3203438	2.236000e+00	-1.302508e+02	-7.104149e-02	0	0
3205391	2.236000e+00	-1.273521e+02	5.950707e-02	0	0
3207344	2.236000e+00	-1.139363e+02	-1.795409e-01	0	0
3209297	2.236000e+00	-1.262907e+02	1.041636e+00	0	0
3211250	2.235744e+00	-1.291014e+02	3.151204e+00	0	0
3213203	2.235256e+00	-1.031596e+02	-1.915775e-01	0	0
3215156	2.236000e+00	-9.764596e+01	8.924013e-01	0	0
3217109	2.236000e+00	-9.183500e+01	-1.618491e+00	0	0
3219063	2.236000e+00	-1.170372e+02	-5.557647e+00	0	0
3221016	2.236000e+00	-1.263075e+02	9.354829e-01	0	0
3222969	2.236000e+00	-1.083206e+02	-1.781774e-01	0	0
3224922	2.236000e+00	-1.099118e+02	3.347966e-01	0	0
3226875	2.235743e+00	-1.248059e+02	-7.459091e-01	0	0
3228828	2.235257e+00	-1.038392e+02	3.081339e+00	0	0
3230781	2.235743e+00	-8.661893e+01	9.752496e+00	0	0
3232734	2.235000e+00	-8.232357e+01	-1.598465e+00	0	0
3234688	2.235000e+00	-7.017665e+01	1.106285e+00	0	0
3236641	2.235000e+00	-7.141722e+01	-3.102528e+00	0	0
3238594	2.235000e+00	-7.774658e+01	-9.378331e+00	0	0
3240547	2.235000e+00	-9.108573e+01	1.322620e+00	0	0
3242500	2.235000e+00	-7.647752e+01	-4.013304e-01	0	0
3244453	2.235000e+00	-7.124258e+01	1.279637e-01	0	0
3246406	2.235000e+00	-7.531341e+01	-5.437158e-01	0	0
3248359	2.235000e+00	-9.053062e+01	1.397035e+00	0	0
3250313	2.235000e+00	-7.805154e+01	4.689699e+00	0	0
3252266	2.235000e+00	-5.394798e+01	-7.386454e-01	0	0
3254219	2.235000e+00	-4.308101e+01	3.654557e-01	0	0
3256172	2.235000e+00	-3.110751e+01	-8.596649e-01	0	0
3258125	2.235000e+00	-3.576826e+01	-2.498619e+00	0	0
3260078	2.235000e+00	-5.212228e+01	3.412001e-01	0	0
3262031	2.235000e+00	-4.719225e+01	-1.185849e-01	0	0
3263984	2.235000e+00	-4.324622e+01	4.847788e-02	0	0
3265938	2.235000e+00	-3.610198e+01	-1.595623e-01	0	0
3267891	2.235000e+00	-3.723181e+01	5.404926e-01	0	0
3269844	2.235000e+00	-2.845875e+01	1.709098e+00	0	0
3271797	2.235000e+00	-1.362121e+01	-2.572901e-01	0	0
3273750	2.235000e+00	-1.063257e+01	4.353914e-02	0	0
3275703	2.235000e+00	9.879187e+00	-7.399815e-03	0	0
3277656	2.235000e+00	1.234224e+01	-1.280706e+00	0	0
3279609	2.235000e+00	1.073103e+01	-2.298216e+00	0	0
3281563	2.235000e+00	1.592438e+01	3.138553e-01	0	0
3283516	2.235000e+00	1.344566e+01	-1.327909e-01	0	0
3285469	2.235000e+00	3.463101e+00	1.406312e-01	0	0
3287422	2.235000e+00	-1.198788e+00	-5.056971e-01	0	0
3289375	2.235000e+00	1.031962e+01	1.927765e+00	0	0
3291328	2.235000e+00	2.069247e+01	6.116307e+00	0	0
3293281	2.235000e+00	4.322139e+01	-1.080539e+00	0	0
3295234	2.235000e+00	6.202604e+01	9.632736e-01	0	0
3297188	2.235000e+00	6.665280e+01	-3.034694e+00	0	0
3299141	2.235000e+00	7.516119e+01	-9.186572e+00	0	0
3301094	2.235000e+00	8.564382e+01	1.319011e+00	0	0
3303047	2.235000e+00	9.716576e+01	-4.322784e-01	0	0
3305000	2.235000e+00	8.147472e+01	3.406879e-01	0	0
3306953	2.235000e+00	8.843500e+01	-9.991758e-01	0	0
3308906	2.235000e+00	1.036057e+02	3.827210e+00	0	0
3310859	2.235000e+00	9.873319e+01	1.199007e+01	0	0
3312813	2.235000e+00	1.362413e+02	-1.969070e+00	0	0
3314766	2.235000e+00	1.583181e+02	1.366396e+00	0	0
3316719	2.235000e+00	1.631887e+02	-3.789581e+00	0	0
3318672	2.235000e+00	1.885454e+02	-1.128643e+01	0	0
3320625	2.235000e+00	1.755189e+02	1.614511e+00	0	0
3322578	2.235000e+00	1.932435e+02	-4.835856e-01	0	0
3324531	2.235000e+00	1.908153e+02	2.576924e-01	0	0
3326484	2.235000e+00	2.118461e+02	-6.085924e-01	0	0
3328438	2.235000e+00	2.200816e+02	2.262666e+00	0	0
3330391	2.235000e+00	2.075891e+02	7.017360e+00	0	0
3332344	2.235000e+00	2.307560e+02	-1.118390e+00	0	0
3334297	2.235000e+00	2.259240e+02	6.431746e-01	0	0
3336250	2.235000e+00	2.584578e+02	-1.607619e+00	0	0
3338203	2.235000e+00	2.660648e+02	-4.694921e+00	0	0
3340156	2.235000e+00	2.704257e+02	6.667778e-01	0	0
3342109	2.235000e+00	2.821884e+02	-2.076927e-01	0	0
3344063	2.235000e+00	2.787263e+02	1.093401e-01	0	0
3346016	2.235000e+00	3.027338e+02	-2.835913e-01	0	0
3347969	2.235000e+00	3.189623e+02	1.037485e+00	0	0
3349922	2.235000e+00	3.374293e+02	3.225042e+00	0	0
3351875	2.235000e+00	3.566885e+02	-5.347374e-01	0	0
3353828	2.235000e+00	3.575951e+02	3.515281e-01	0	0
3355781	2.235000e+00	3.738146e+02	-9.809056e-01	0	0
3357734	2.235000e+00	3.708746e+02	-2.887577e+00	0	0
3359688	2.235000e+00	3.658367e+02	4.112089e-01	0	0
3361641	2.235000e+00	3.767964e+02	-1.398654e-01	0	0
3363594	2.235000e+00	3.509840e+02	1.007237e-01	0	0
3365547	2.235000e+00	3.483399e+02	-3.098317e-01	0	0
3367500	2.235000e+00	3.380641e+02	1.165059e+00	0	0
3369453	2.235000e+00	3.365490e+02	3.426187e+00	0	0
3371406	2.235000e+00	3.336612e+02	-6.996828e-01	0	0
3373359	2.235000e+00	3.169201e+02	9.719115e-03	0	0
3375313	2.235000e+00	2.888120e+02	5.145574e-01	0	0
3377266	2.235000e+00	2.565572e+02	-2.252992e+00	0	0
3379219	2.235000e+00	2.213306e+02	-6.878420e+00	0	0
3381172	2.235000e+00	1.868977e+02	9.349090e-01	0	0
3383125	2.235000e+00	1.696733e+02	-4.939569e-02	0	0
3385078	2.235000e+00	1.309875e+02	2.012440e+00	0	0
3387031	2.235000e+00	1.219243e+02	6.706080e-01	0	0
3388984	2.235000e+00	9.632317e+01	4.646431e+00	0	0
3390938	2.235000e+00	6.422444e+01	1.209052e+01	0	0
3392891	2.235000e+00	4.076808e+01	-1.996079e+00	0	0
3394844	2.235000e+00	2.340518e+01	1.431195e+00	0	0
3396797	2.235000e+00	1.676406e+01	-4.015567e+00	0	0
3398750	2.235000e+00	-6.603365e+00	-1.231949e+01	0	0
3400703	2.235000e+00	-4.269847e+01	-1.028953e-01	0	0
3402656	2.235000e+00	-7.338725e+01	-2.846051e+00	0	0
3404609	2.235000e+00	-9.228551e+01	-1.156481e+00	0	0
3406563	2.235000e+00	-1.037379e+02	-4.996254e-01	0	0
3408516	2.235000e+00	-1.222991e+02	1.916587e+00	0	0
3410469	2.235000e+00	-1.291331e+02	5.871464e+00	0	0
3412422	2.235000e+00	-1.462080e+02	-8.491493e-01	0	0
3414375	2.235000e+00	-1.466992e+02	2.015344e-01	0	0
3416328	2.235000e+00	-1.492359e+02	6.260843e-01	0	0
3418281	2.235000e+00	-1.698036e+02	1.308529e+00	0	0
3420234	2.235000e+00	-1.758544e+02	-1.431310e-01	0	0
3422188	2.235000e+00	-1.805131e+02	3.882391e-02	0	0
3424141	2.235000e+00	-1.836631e+02	-1.550938e-02	0	0
3426094	2.235000e+00	-1.827327e+02	-8.540434e-04	0	0
3428047	2.235000e+00	-2.104787e+02	-4.406533e-03	0	0
3430000	2.235000e+00	-2.014045e+02	-4.116937e-03	0	0
3431953	2.235000e+00	-1.826737e+02	-9.874523e-04	0	0
3433906	2.235000e+00	-1.998970e+02	-1.431924e-02	0	0
3435859	2.235000e+00	-1.999668e+02	-9.846081e-02	0	0
3437813	2.235000e+00	-2.034213e+02	-2.094566e-01	0	0
3439766	2.235000e+00	-2.222628e+02	-3.173900e-01	0	0
3441719	2.235000e+00	-2.338148e+02	-4.321896e-01	0	0
3443672	2.235000e+00	-2.359161e+02	-5.256390e-01	0	0
3445625	2.235000e+00	-2.451409e+02	-6.973674e-01	0	0
3447578	2.235000e+00	-2.464019e+02	-5.547447e-01	0	0
3449531	2.235000e+00	-2.375929e+02	-2.678989e-01	0	0
3451484	2.235000e+00	-2.281873e+02	-9.949673e-01	0	0
3453438	2.235000e+00	-2.281441e+02	-1.100755e+00	0	0
3455391	2.235000e+00	-2.260052e+02	-7.114644e-01	0	0
3457344	2.235000e+00	-2.448880e+02	-2.708806e+00	0	0
3459297	2.235000e+00	-2.447953e+02	-5.885416e+00	0	0
3461250	2.235000e+00	-2.580352e+02	-5.726888e-01	0	0
3463203	2.235000e+00	-2.622141e+02	-1.549773e+00	0	0
3465156	2.235000e+00	-2.660429e+02	-1.063036e+00	0	0
3467109	2.235000e+00	-2.672343e+02	-2.216884e+00	0	0
3469063	2.235000e+00	-2.581582e+02	2.012968e+00	0	0
3471016	2.235000e+00	-2.681498e+02	8.867681e+00	0	0
3472969	2.235000e+00	-2.518184e+02	-3.077809e+00	0	0
3474922	2.235000e+00	-2.480376e+02	-6.145991e-02	0	0
3476875	2.235000e+00	-2.658975e+02	-4.923576e+00	0	0
3478828	2.235000e+00	-2.716776e+02	-1.175205e+01	0	0
3480781	2.235000e+00	-2.675345e+02	3.697082e-01	0	0
3482734	2.235000e+00	-2.679233e+02	-1.444665e+00	0	0
3484688	2.235000e+00	-2.712078e+02	-5.341136e-01	0	0
3486641	2.235000e+00	-2.664374e+02	-9.940485e-01	0	0
3488594	2.235000e+00	-2.743547e+02	1.777336e+00	0	0
3490547	2.235000e+00	-2.768614e+02	5.796421e+00	0	0
3492500	2.235000e+00	-2.751949e+02	-8.974046e-01	0	0
3494453	2.235000e+00	-2.857228e+02	4.208550e-01	0	0
3496406	2.235000e+00	-2.744973e+02	-8.365295e-01	0	0
3498359	2.235000e+00	-2.673204e+02	-2.300396e+00	0	0
3500313	2.235000e+00	-2.736784e+02	3.337891e-01	0	0
3502266	2.235000e+00	-2.652070e+02	-8.916595e-02	0	0
3504219	2.235000e+00	-2.693432e+02	2.287149e-02	0	0
3506172	2.235000e+00	-2.584826e+02	-2.319069e-03	0	0
3508125	2.235000e+00	-2.748304e+02	-1.359584e-02	0	0
3510078	2.235000e+00	-2.803378e+02	6.317529e-02	0	0
3512031	2.235000e+00	-2.569433e+02	4.399600e-01	0	0
3513984	2.235000e+00	-2.616223e+02	7.606952e-01	0	0
3515938	2.235000e+00	-2.617185e+02	1.038240e+00	0	0
3517891	2.235000e+00	-2.616223e+02	1.252164e+00	0	0
3519844	2.235000e+00	-2.674750e+02	1.405527e+00	0	0
3521797	2.235000e+00	-2.744555e+02	1.457393e+00	0	0
3523750	2.235000e+00	-2.731620e+02	1.494916e+00	0	0
3525703	2.235000e+00	-2.832561e+02	1.115325e+00	0	0
3527656	2.235000e+00	-2.747301e+02	1.873656e+00	0	0
3529609	2.235000e+00	-2.673691e+02	3.100801e+00	0	0
3531563	2.235000e+00	-2.522147e+02	9.937679e-02	0	0
3533516	2.235000e+00	-2.529554e+02	-1.538410e-02	0	0
3535469	2.235000e+00	-2.461765e+02	5.336727e-01	0	0
3537422	2.235000e+00	-2.356787e+02	-2.226800e+00	0	0
3539375	2.235000e+00	-2.390924e+02	-6.618886e+00	0	0
3541328	2.235000e+00	-2.357952e+02	9.874812e-01	0	0
3543281	2.235000e+00	-2.523314e+02	-3.278273e-01	0	0
3545234	2.235000e+00	-2.586600e+02	3.238255e-01	0	0
3547188	2.235000e+00	-2.586296e+02	-9.694247e-01	0	0
3549141	2.235000e+00	-2.583910e+02	3.804576e+00	0	0
3551094	2.235000e+00	-2.596930e+02	1.120398e+01	0	0
3553047	2.235000e+00	-2.540287e+02	-2.419318e+00	0	0
3555000	2.235000e+00	-2.581826e+02	5.679282e-01	0	0
3556953	2.235000e+00	-2.558571e+02	-5.222987e+00	0	0
3558906	2.235000e+00	-2.449246e+02	-1.319097e+01	0	0
3560859	2.235000e+00	-2.462075e+02	-3.498282e-01	0	0
3562813	2.235000e+00	-2.748000e+02	-2.490306e+00	0	0
3564766	2.235000e+00	-2.696146e+02	-1.189117e+00	0	0
3566719	2.235000e+00	-2.524792e+02	-2.003264e+00	0	0
3568672	2.235000e+00	-2.702446e+02	2.060994e+00	0	0
3570625	2.235000e+00	-2.562127e+02	8.306983e+00	0	0
3572578	2.235000e+00	-2.321436e+02	-1.740305e+00	0	0
3574531	2.235000e+00	-2.351740e+02	8.971210e-01	0	0
3576484	2.235000e+00	-2.378177e+02	-2.181316e+00	0	0
3578438	2.235000e+00	-2.341953e+02	-6.084103e+00	0	0
3580391	2.235000e+00	-2.404954e+02	8.961160e-01	0	0
3582344	2.235000e+00	-2.376126e+02	-2.556111e-01	0	0
3584297	2.235000e+00	-2.320183e+02	1.263216e-01	0	0
3586250	2.235000e+00	-2.278109e+02	-2.496790e-01	0	0
3588203	2.235000e+00	-2.419512e+02	9.343578e-01	0	0
3590156	2.235000e+00	-2.431038e+02	2.724607e+00	0	0
3592109	2.235000e+00	-2.593912e+02	-4.023421e-01	0	0
3594063	2.235000e+00	-2.420170e+02	1.195697e-01	0	0
3596016	2.235000e+00	-2.409786e+02	5.283638e-01	0	0
3597969	2.235000e+00	-2.582786e+02	-1.710521e-02	0	0
3599922	2.235000e+00	-2.412594e+02	-1.115412e+00	0	0
3601875	2.235000e+00	-2.497983e+02	1.290063e+00	0	0
3603828	2.235000e+00	-2.542054e+02	1.129391e+00	0	0
3605781	2.235270e+00	-2.462202e+02	1.057312e+00	0	0
3607734	2.235730e+00	-2.618186e+02	2.208128e+00	0	0
3609688	2.235000e+00	-2.648545e+02	4.010504e+00	0	0
3611641	2.235000e+00	-2.425001e+02	9.211378e-01	0	0
3613594	2.235000e+00	-2.323059e+02	1.964192e+00	0	0
3615547	2.235271e+00	-2.269936e+02	-3.761215e-01	0	0
3617500	2.235729e+00	-2.208550e+02	-4.082125e+00	0	0
3619453	2.235271e+00	-1.999241e+02	1.471923e+00	0	0
3621406	2.236000e+00	-1.866973e+02	1.076637e+00	0	0
3623359	2.236000e+00	-1.748338e+02	9.968462e-01	0	0
3625313	2.236000e+00	-1.711089e+02	1.161874e+00	0	0
3627266	2.236000e+00	-1.617230e+02	-3.709800e-01	0	0
3629219	2.236000e+00	-1.572644e+02	4.821274e+00	0	0
3631172	2.236000e+00	-1.560038e+02	1.297565e+01	0	0
3633125	2.236000e+00	-1.440182e+02	-2.069760e+00	0	0
3635078	2.236000e+00	-1.330637e+02	1.651219e+00	0	0
3637031	2.236000e+00	-1.383619e+02	-4.789123e+00	0	0
3638984	2.236000e+00	-1.257881e+02	-1.350076e+01	0	0
3640938	2.236000e+00	-1.011214e+02	2.009417e+00	0	0
3642891	2.236000e+00	-9.651214e+01	-6.005633e-01	0	0
3644844	2.236000e+00	-8.334509e+01	3.928244e-01	0	0
3646797	2.236000e+00	-7.845296e+01	-9.707531e-01	0	0
3648750	2.236000e+00	-7.709944e+01	3.743599e+00	0	0
3650703	2.236000e+00	-8.842097e+01	1.088682e+01	0	0
3652656	2.236000e+00	-8.166233e+01	-1.775423e+00	0	0
3654609	2.236000e+00	-6.835101e+01	1.070316e+00	0	0
3656563	2.236000e+00	-5.508236e+01	-2.685160e+00	0	0
3658516	2.236000e+00	-2.577719e+01	-7.389278e+00	0	0
3660469	2.236000e+00	-2.182597e+01	1.095300e+00	0	0
3662422	2.236000e+00	-3.034403e+01	-3.084674e-01	0	0
3664375	2.236000e+00	-3.091672e+01	1.385619e-01	0	0
3666328	2.236000e+00	-2.633958e+01	-2.457833e-01	0	0
3668281	2.236000e+00	-4.108579e+01	9.059087e-01	0	0
3670234	2.236000e+00	-3.600287e+01	2.615355e+00	0	0
3672188	2.236000e+00	-4.402445e+01	-4.256799e-01	0	0
3674141	2.236000e+00	-4.765291e+01	2.512815e-01	0	0
3676094	2.236000e+00	-4.259434e+01	-6.198410e-01	0	0
3678047	2.236000e+00	-4.686308e+01	-1.697768e+00	0	0
3680000	2.236000e+00	-5.953823e+01	2.542694e-01	0	0
3681953	2.236000e+00	-8.083211e+01	-7.976788e-02	0	0
3683906	2.236000e+00	-9.509567e+01	6.479948e-02	0	0
3685859	2.236000e+00	-1.161402e+02	-1.794392e-01	0	0
3687813	2.236000e+00	-1.634634e+02	7.021156e-01	0	0
3689766	2.236000e+00	-1.848974e+02	1.997814e+00	0	0
3691719	2.236000e+00	-1.961296e+02	-2.735732e-01	0	0
3693672	2.236000e+00	-2.010784e+02	-1.071752e-02	0	0
3695625	2.236000e+00	-2.162408e+02	3.164701e-01	0	0
3697578	2.236000e+00	-2.362449e+02	-1.347987e+00	0	0
3699531	2.236274e+00	-2.603425e+02	-3.887970e+00	0	0
3701484	2.236726e+00	-2.713755e+02	5.909699e-01	0	0
3703438	2.236000e+00	-2.684010e+02	-2.049617e-01	0	0
3705391	2.236274e+00	-2.868685e+02	2.284490e-01	0	0
3707344	2.237000e+00	-2.875954e+02	-7.088732e-01	0	0
3709297	2.237000e+00	-2.926889e+02	2.800639e+00	0	0
3711250	2.237000e+00	-3.093846e+02	8.098804e+00	0	0
3713203	2.237000e+00	-3.114518e+02	-1.423537e+00	0	0
3715156	2.237000e+00	-2.949456e+02	1.167984e+00	0	0
3717109	2.237000e+00	-2.864787e+02	-3.482994e+00	0	0
3719063	2.237000e+00	-2.994417e+02	-9.753382e+00	0	0
3721016	2.237000e+00	-3.264304e+02	1.229809e+00	0	0
3722969	2.237000e+00	-3.198659e+02	-7.487652e-01	0	0
3724922	2.237000e+00	-3.386526e+02	-3.111415e-02	0	0
3726875	2.237000e+00	-3.412359e+02	-1.337821e+00	0	0
3728828	2.237000e+00	-3.233037e+02	3.089318e+00	0	0
3730781	2.237000e+00	-3.269438e+02	9.709140e+00	0	0
3732734	2.237000e+00	-3.260304e+02	-2.218159e+00	0	0
3734688	2.237000e+00	-3.279541e+02	7.432703e-01	0	0
3736641	2.237000e+00	-3.214653e+02	-3.802703e+00	0	0
3738594	2.237000e+00	-3.308271e+02	-9.596189e+00	0	0
3740547	2.237000e+00	-3.447614e+02	1.066924e+00	0	0
3742500	2.237000e+00	-3.450991e+02	-5.946426e-01	0	0
3744453	2.237000e+00	-3.613578e+02	1.512951e-01	0	0
3746406	2.237000e+00	-3.472042e+02	-4.325147e-01	0	0
3748359	2.237000e+00	-3.532879e+02	1.658782e+00	0	0
3750313	2.237000e+00	-3.633132e+02	4.709626e+00	0	0
3752266	2.237000e+00	-3.496077e+02	-7.554582e-01	0	0
3754219	2.237000e+00	-3.506390e+02	3.876511e-01	0	0
3756172	2.237000e+00	-3.518286e+02	-8.509248e-01	0	0
3758125	2.237276e+00	-3.376716e+02	-2.250374e+00	0	0
3760078	2.237724e+00	-3.563319e+02	3.366927e-01	0	0
3762031	2.237276e+00	-3.617241e+02	-9.635699e-02	0	0
3763984	2.238000e+00	-3.553268e+02	4.872972e-02	0	0
3765938	2.238000e+00	-3.626432e+02	-9.874863e-02	0	0
3767891	2.238000e+00	-3.649962e+02	3.720598e-01	0	0
3769844	2.238000e+00	-3.473497e+02	1.038225e+00	0	0
3771797	2.238000e+00	-3.453575e+02	-1.457131e-01	0	0
3773750	2.238000e+00	-3.539239e+02	3.852956e-03	0	0
3775703	2.238000e+00	-4.042041e+02	1.303129e-01	0	0
3777656	2.238000e+00	-4.309415e+02	-5.647350e-01	0	0
3779609	2.238000e+00	-4.298936e+02	-1.589021e+00	0	0
3781563	2.238000e+00	-4.303505e+02	2.163831e-01	0	0
3783516	2.238000e+00	-3.997344e+02	2.121109e-02	0	0
3785469	2.238000e+00	-3.022670e+02	-3.012513e-01	0	0
3787422	2.238000e+00	-2.109853e+02	1.297659e+00	0	0
3789375	2.238000e+00	-1.192999e+02	5.828764e+00	0	0
3791328	2.238000e+00	3.523945e+01	2.997522e+00	0	0
3793281	2.238000e+00	2.123064e+02	-5.572376e-01	0	0
3795234	2.238000e+00	4.503924e+02	8.278740e-01	0	0
3797188	2.238000e+00	6.889244e+02	-2.967125e+00	0	0
3799141	2.238000e+00	9.255790e+02	-8.231585e+00	0	0
3801094	2.238000e+00	1.180263e+03	1.252512e+00	0	0
3803047	2.238000e+00	1.403425e+03	-3.952199e-01	0	0
3805000	2.238278e+00	1.566368e+03	3.283563e-01	0	0
3806953	2.239000e+00	1.572648e+03	-9.182518e-01	0	0
3808906	2.238722e+00	1.426503e+03	3.599404e+00	0	0
3810859	2.238278e+00	1.160390e+03	1.014818e+01	0	0
3812813	2.239000e+00	8.638098e+02	-1.732604e+00	0	0
3814766	2.239000e+00	7.236408e+02	1.210120e+00	0	0
3816719	2.239000e+00	5.002528e+02	-3.336610e+00	0	0
3818672	2.239000e+00	3.505501e+02	-8.972985e+00	0	0
3820625	2.239000e+00	1.149364e+02	1.352876e+00	0	0
3822578	2.239000e+00	-1.178711e+02	-3.837785e-01	0	0
3824531	2.239000e+00	-2.388357e+02	1.822155e-01	0	0
3826484	2.239000e+00	-3.452062e+02	-3.450952e-01	0	0
3828438	2.239000e+00	-4.119712e+02	1.292007e+00	0	0
3830391	2.239000e+00	-4.498938e+02	3.580633e+00	0	0
3832344	2.239000e+00	-4.537431e+02	-5.625766e-01	0	0
3834297	2.239000e+00	-4.305521e+02	2.342466e-01	0	0
3836250	2.239000e+00	-4.130291e+02	-4.001285e-01	0	0
3838203	2.239000e+00	-3.892008e+02	-9.938034e-01	0	0
3840156	2.239000e+00	-3.436311e+02	1.485937e-01	0	0
3842109	2.239000e+00	-3.240305e+02	-3.981643e-02	0	0
3844063	2.239000e+00	-3.123246e+02	1.067590e-02	0	0
3846016	2.239000e+00	-3.017740e+02	-2.860662e-03	0	0
3847969	2.239280e+00	-2.882244e+02	7.665298e-04	0	0
3849922	2.239720e+00	-2.885108e+02	-2.054008e-04	0	0
3851875	2.239280e+00	-2.716858e+02	5.505819e-05	0	0
3853828	2.240000e+00	-2.818454e+02	-1.482789e-05	0	0
3855781	2.240000e+00	-2.882109e+02	4.252307e-06	0	0
3857734	2.240000e+00	-3.052673e+02	-2.181111e-06	0	0
3859688	2.240000e+00	-2.905083e+02	4.480473e-06	0	0
3861641	2.240000e+00	-2.964100e+02	-1.573886e-05	0	0
3863594	2.240000e+00	-3.049053e+02	5.847838e-05	0	0
3865547	2.240000e+00	-3.199332e+02	-2.181875e-04	0	0
3867500	2.240000e+00	-3.095172e+02	8.143191e-04	0	0
3869453	2.240000e+00	-3.059203e+02	-3.039267e-03	0	0
3871406	2.240000e+00	-3.026975e+02	1.134341e-02	0	0
3873359	2.240000e+00	-2.911928e+02	-4.233687e-02	0	0
3875313	2.240000e+00	-2.734160e+02	1.583137e-01	0	0
3877266	2.240000e+00	-2.852549e+02	-6.367814e-01	0	0
3879219	2.240000e+00	-2.753390e+02	-1.756587e+00	0	0
3881172	2.240282e+00	-2.879202e+02	2.770213e-01	0	0
3883125	2.241000e+00	-3.022681e+02	-1.140988e-01	0	0
3885078	2.241000e+00	-2.967260e+02	1.793781e-01	0	0
3887031	2.241000e+00	-2.969257e+02	-6.034470e-01	0	0
3888984	2.241000e+00	-2.856610e+02	2.408960e+00	0	0
3890938	2.241000e+00	-2.655408e+02	6.699148e+00	0	0
3892891	2.241000e+00	-2.552025e+02	-1.192721e+00	0	0
3894844	2.241000e+00	-2.649035e+02	9.584742e-01	0	0
3896797	2.241000e+00	-2.583071e+02	-2.841637e+00	0	0
3898750	2.241000e+00	-2.623658e+02	-7.574143e+00	0	0
3900703	2.241000e+00	-2.626469e+02	1.157473e+00	0	0
3902656	2.241000e+00	-2.641538e+02	-3.499623e-01	0	0
3904609	2.241000e+00	-2.658700e+02	2.423627e-01	0	0
3906563	2.241000e+00	-2.738289e+02	-6.206601e-01	0	0
3908516	2.241000e+00	-2.635294e+02	2.415763e+00	0	0
3910469	2.241000e+00	-2.577894e+02	6.646351e+00	0	0
3912422	2.241000e+00	-2.454833e+02	-1.145752e+00	0	0
3914375	2.241000e+00	-2.433098e+02	7.999175e-01	0	0
3916328	2.241000e+00	-2.632800e+02	-2.209303e+00	0	0
3918281	2.241283e+00	-2.577608e+02	-5.819961e+00	0	0
3920234	2.242000e+00	-2.632649e+02	8.900796e-01	0	0
3922188	2.242000e+00	-2.532138e+02	-2.684871e-01	0	0
3924141	2.242000e+00	-2.451619e+02	1.832953e-01	0	0
3926094	2.242000e+00	-2.435272e+02	-4.647155e-01	0	0
3928047	2.242000e+00	-2.311159e+02	1.807697e+00	0	0
3930000	2.242000e+00	-2.307047e+02	4.953798e+00	0	0
3931953	2.242000e+00	-2.238400e+02	-8.526887e-01	0	0
3933906	2.242000e+00	-2.140128e+02	5.869240e-01	0	0
3935859	2.242000e+00	-1.992904e+02	-1.608552e+00	0	0
3937813	2.242000e+00	-2.176266e+02	-4.216854e+00	0	0
3939766	2.242000e+00	-2.069606e+02	6.492359e-01	0	0
3941719	2.242000e+00	-1.997124e+02	-2.048878e-01	0	0
3943672	2.242284e+00	-1.908609e+02	1.703102e-01	0	0
3945625	2.243000e+00	-1.932177e+02	-4.894789e-01	0	0
3947578	2.243000e+00	-1.985302e+02	7.189647e-01	0	0
3949531	2.243000e+00	-1.846744e+02	3.303537e+00	0	0
3951484	2.243000e+00	-1.764817e+02	-4.567759e-01	0	0
3953438	2.243000e+00	-1.576578e+02	8.575614e-02	0	0
3955391	2.243000e+00	-1.662830e+02	4.011635e-01	0	0
3957344	2.243000e+00	-1.705129e+02	-1.807228e+00	0	0
3959297	2.243000e+00	-1.815947e+02	-6.032029e+00	0	0
3961250	2.243000e+00	-1.826171e+02	4.539607e-03	0	0
3963203	2.243000e+00	-1.747167e+02	2.574996e+00	0	0
3965156	2.243000e+00	-1.772732e+02	2.451090e+00	0	0
3967109	2.243000e+00	-1.670787e+02	1.880280e-02	0	0
3969063	2.243000e+00	-1.626897e+02	3.445311e+00	0	0
3971016	2.243285e+00	-1.496589e+02	9.736271e+00	0	0
3972969	2.244000e+00	-1.513941e+02	-1.758789e+00	0	0
3974922	2.244000e+00	-1.292391e+02	1.438567e+00	0	0
3976875	2.244000e+00	-1.109123e+02	-4.323674e+00	0	0
3978828	2.244000e+00	-1.066593e+02	-1.285875e+01	0	0
3980781	2.244000e+00	-9.028728e+01	-2.336348e+00	0	0
3982734	2.244000e+00	-1.118764e+02	-4.133003e+00	0	0
3984688	2.244000e+00	-1.254013e+02	-1.996839e+00	0	0
3986641	2.244000e+00	-1.097742e+02	-1.681989e+00	0	0
3988594	2.244000e+00	-1.163470e+02	1.105596e+00	0	0
3990547	2.244000e+00	-1.053835e+02	5.262726e+00	0	0
3992500	2.244000e+00	-7.775593e+01	-2.329760e+00	0	0
3994453	2.244000e+00	-5.415929e+01	-1.085842e-01	0	0
3996406	2.244000e+00	-2.673893e+01	-8.792736e-01	0	0
3998359	2.244286e+00	-3.178415e+01	-2.401375e+00	0	0
4000313	2.245000e+00	-1.542323e+01	3.126582e+00	0	0
4002266	2.245000e+00	-1.627808e+01	2.546688e+00	0	0
4004219	2.245000e+00	-2.835412e+01	2.630388e+00	0	0
4006172	2.245000e+00	-2.569859e+01	1.788518e+00	0	0
4008125	2.245000e+00	-1.654219e+01	2.328611e+00	0	0
4010078	2.245000e+00	2.384538e+00	3.182211e+00	0	0
4012031	2.245000e+00	1.827525e+01	-4.784235e-01	0	0
4013984	2.245000e+00	3.680776e+01	1.533256e-01	0	0
4015938	2.245000e+00	5.683707e+01	-1.577190e-01	0	0
4017891	2.245000e+00	5.096436e+01	-1.521274e+00	0	0
4019844	2.245000e+00	5.281907e+01	-1.828862e+00	0	0
4021797	2.245287e+00	6.760003e+01	3.163387e-01	0	0
4023750	2.246000e+00	7.516209e+01	-2.893323e-01	0	0
4025703	2.246000e+00	8.521144e+01	-1.402837e+00	0	0
4027656	2.246000e+00	9.515978e+01	-2.464307e+00	0	0
4029609	2.246000e+00	1.346462e+02	-1.646521e+00	0	0
4031563	2.246000e+00	1.201033e+02	2.261604e-01	0	0
4033516	2.246000e+00	1.285083e+02	-5.445473e-02	0	0
4035469	2.246000e+00	1.555120e+02	1.422549e+00	0	0
4037422	2.246000e+00	1.617270e+02	-6.887899e-01	0	0
4039375	2.246000e+00	1.597027e+02	-3.516591e+00	0	0
4041328	2.246288e+00	1.609694e+02	1.385559e+00	0	0
4043281	2.246712e+00	1.814754e+02	2.689259e+00	0	0
4045234	2.246288e+00	2.017572e+02	3.489994e+00	0	0
4047188	2.247000e+00	1.946539e+02	6.120789e-01	0	0
4049141	2.247000e+00	1.950338e+02	3.909555e+00	0	0
4051094	2.247000e+00	2.091914e+02	1.110247e+01	0	0
4053047	2.247000e+00	2.121749e+02	-1.989863e+00	0	0
4055000	2.247000e+00	2.309324e+02	1.505450e+00	0	0
4056953	2.247000e+00	2.351831e+02	-6.052282e+00	0	0
4058906	2.247000e+00	2.443334e+02	-1.496971e+01	0	0
4060859	2.247000e+00	2.377909e+02	-3.711373e-01	0	0
4062813	2.247289e+00	2.318004e+02	-1.420821e+00	0	0
4064766	2.248000e+00	2.325909e+02	4.335199e-01	0	0
4066719	2.248000e+00	2.145694e+02	-7.867098e-01	0	0
4068672	2.248000e+00	1.905052e+02	2.934732e+00	0	0
4070625	2.248000e+00	1.670063e+02	7.736254e+00	0	0
4072578	2.248000e+00	1.438659e+02	-1.279013e+00	0	0
4074531	2.248000e+00	1.241087e+02	6.563687e-01	0	0
4076484	2.248000e+00	9.540193e+01	-1.449808e+00	0	0
4078438	2.248000e+00	6.463430e+01	-3.574654e+00	0	0
4080391	2.248000e+00	5.131619e+01	5.492501e-01	0	0
4082344	2.248000e+00	2.120612e+01	-1.471739e-01	0	0
4084297	2.248290e+00	-1.059066e+01	3.943587e-02	0	0
4086250	2.249000e+00	-2.416746e+01	-1.056701e-02	0	0
4088203	2.249000e+00	-5.850442e+01	2.831476e-03	0	0
4090156	2.249000e+00	-6.757008e+01	-7.587111e-04	0	0
4092109	2.249000e+00	-9.969428e+01	2.033186e-04	0	0
4094063	2.249000e+00	-1.253413e+02	-5.458088e-05	0	0
4096016	2.249000e+00	-1.374763e+02	1.488631e-05	0	0
4097969	2.249000e+00	-1.493144e+02	-4.963484e-06	0	0
4099922	2.249000e+00	-1.848284e+02	4.967589e-06	0	0
4101875	2.249291e+00	-2.116573e+02	-1.490762e-05	0	0
4103828	2.250000e+00	-2.347278e+02	5.466594e-05	0	0
4105781	2.250000e+00	-2.339418e+02	-2.037675e-04	0	0
4107734	2.250000e+00	-2.445785e+02	7.604469e-04	0	0
4109688	2.250000e+00	-2.756541e+02	-2.843340e-03	0	0
4111641	2.250000e+00	-2.503383e+02	1.061212e-02	0	0
4113594	2.250000e+00	-2.572901e+02	-3.960736e-02	0	0
4115547	2.250000e+00	-2.564095e+02	1.478256e-01	0	0
4117500	2.250000e+00	-2.795444e+02	-5.975650e-01	0	0
4119453	2.250000e+00	-2.981098e+02	-1.566053e+00	0	0
4121406	2.250291e+00	-3.064388e+02	2.533047e-01	0	0
4123359	2.251000e+00	-3.172802e+02	-1.068598e-01	0	0
4125313	2.251000e+00	-3.405427e+02	1.744328e-01	0	0
4127266	2.251000e+00	-3.377075e+02	-5.907908e-01	0	0
4129219	2.251000e+00	-3.200807e+02	2.372183e+00	0	0
4131172	2.251000e+00	-3.252687e+02	6.255998e+00	0	0
4133125	2.251000e+00	-3.320137e+02	-1.144773e+00	0	0
4135078	2.251000e+00	-3.258382e+02	9.381082e-01	0	0
4137031	2.251000e+00	-3.129581e+02	-2.819466e+00	0	0
4138984	2.251000e+00	-3.325752e+02	-7.147658e+00	0	0
4140938	2.251293e+00	-3.314507e+02	1.122585e+00	0	0
4142891	2.252000e+00	-3.285066e+02	-3.600487e-01	0	0
4144844	2.252000e+00	-3.208084e+02	4.054809e-02	0	0
4146797	2.252000e+00	-3.259477e+02	-9.348612e-01	0	0
4148750	2.252000e+00	-3.237345e+02	2.041339e+00	0	0
4150703	2.252000e+00	-3.314914e+02	5.952250e+00	0	0
4152656	2.252000e+00	-3.573787e+02	-1.038671e+00	0	0
4154609	2.252000e+00	-3.431387e+02	6.792129e-01	0	0
4156563	2.252293e+00	-3.309628e+02	-1.816901e+00	0	0
4158516	2.253000e+00	-3.436251e+02	-4.512611e+00	0	0
4160469	2.253000e+00	-3.576358e+02	7.040115e-01	0	0
4162422	2.253000e+00	-3.529175e+02	-2.040052e-01	0	0
4164375	2.253000e+00	-3.437398e+02	1.120012e-01	0	0
4166328	2.253000e+00	-3.436903e+02	-2.440093e-01	0	0
4168281	2.253000e+00	-3.502728e+02	9.363602e-01	0	0
4170234	2.253000e+00	-3.459788e+02	2.405561e+00	0	0
4172188	2.253000e+00	-3.163746e+02	-3.636845e-01	0	0
4174141	2.253294e+00	-3.139294e+02	5.918825e-02	0	0
4176094	2.254000e+00	-3.293451e+02	1.269462e-01	0	0
4178047	2.254000e+00	-3.121175e+02	-6.154163e-01	0	0
4180000	2.254000e+00	-3.249872e+02	-1.602139e+00	0	0
4181953	2.254000e+00	-3.452576e+02	2.401576e-01	0	0
4183906	2.254000e+00	-3.544441e+02	-2.965805e-02	0	0
4185859	2.254000e+00	-3.499470e+02	-1.215373e-01	0	0
4187813	2.254000e+00	-3.488220e+02	5.613002e-01	0	0
4189766	2.254295e+00	-3.576399e+02	1.481056e+00	0	0
4191719	2.255000e+00	-3.438959e+02	-2.250656e-01	0	0
4193672	2.255000e+00	-3.348375e+02	1.357335e-01	0	0
4195625	2.255000e+00	-3.380698e+02	-3.501677e-01	0	0
4197578	2.255000e+00	-3.364842e+02	-2.246646e+00	0	0
4199531	2.255000e+00	-3.324999e+02	-1.973004e+00	0	0
4201484	2.255000e+00	-3.268057e+02	2.930001e-01	0	0
4203438	2.255000e+00	-3.236172e+02	-1.131692e-01	0	0
4205391	2.255295e+00	-3.220309e+02	1.595112e-01	0	0
4207344	2.256000e+00	-3.259034e+02	-5.249027e-01	0	0
4209297	2.256000e+00	-3.111497e+02	2.106432e+00	0	0
4211250	2.256000e+00	-3.042791e+02	5.473350e+00	0	0
4213203	2.256000e+00	-3.073383e+02	-1.034664e+00	0	0
4215156	2.256000e+00	-3.127327e+02	9.272282e-01	0	0
4217109	2.256000e+00	-3.083853e+02	-2.897110e+00	0	0
4219063	2.256000e+00	-3.112055e+02	-7.244846e+00	0	0
4221016	2.256000e+00	-3.184452e+02	1.145728e+00	0	0
4222969	2.256296e+00	-3.087964e+02	-3.592702e-01	0	0
4224922	2.257000e+00	-3.227252e+02	2.913455e-01	0	0
4226875	2.257000e+00	-3.272447e+02	-8.061498e-01	0	0
4228828	2.257000e+00	-3.182386e+02	3.185012e+00	0	0
4230781	2.257000e+00	-2.915595e+02	8.195963e+00	0	0
4232734	2.257000e+00	-2.848364e+02	-1.466947e+00	0	0
4234688	2.257000e+00	-2.973731e+02	1.063423e+00	0	0
4236641	2.257296e+00	-2.945737e+02	-3.017257e+00	0	0
4238594	2.258000e+00	-2.928506e+02	-7.419781e+00	0	0
4240547	2.258000e+00	-3.203418e+02	1.165319e+00	0	0
4242500	2.258000e+00	-3.278735e+02	-3.334280e-01	0	0
4244453	2.258000e+00	-3.378518e+02	1.683794e-01	0	0
4246406	2.258000e+00	-3.319323e+02	-3.401020e-01	0	0
4248359	2.258000e+00	-3.286051e+02	1.294190e+00	0	0
4250313	2.258297e+00	-3.259320e+02	3.284392e+00	0	0
4252266	2.259000e+00	-3.160069e+02	-5.429831e-01	0	0
4254219	2.259000e+00	-3.232388e+02	2.468240e-01	0	0
4256172	2.259000e+00	-3.219051e+02	-4.794762e-01	0	0
4258125	2.259000e+00	-3.331315e+02	-1.112206e+00	0	0
4260078	2.259000e+00	-3.285569e+02	1.740743e-01	0	0
4262031	2.259000e+00	-3.204612e+02	-4.918337e-02	0	0
4263984	2.259297e+00	-3.205525e+02	2.265700e-02	0	0
4265938	2.260000e+00	-3.126596e+02	-4.151494e-02	0	0
4267891	2.260000e+00	-3.164154e+02	1.556334e-01	0	0
4269844	2.260000e+00	-2.914018e+02	3.839403e-01	0	0
4271797	2.260000e+00	-2.544286e+02	-4.584371e-02	0	0
4273750	2.260000e+00	-2.494177e+02	-3.993371e-02	0	0
4275703	2.260000e+00	-2.244349e+02	2.055909e-01	0	0
4277656	2.260000e+00	-2.267681e+02	-8.504713e-01	0	0
4279609	2.260298e+00	-2.102478e+02	-2.157490e+00	0	0
4281563	2.261000e+00	-2.046110e+02	3.528852e-01	0	0
4283516	2.261000e+00	-2.075241e+02	-1.441704e-01	0	0
4285469	2.261000e+00	-2.008683e+02	2.238017e-01	0	0
4287422	2.261000e+00	-2.024114e+02	-7.510753e-01	0	0
4289375	2.261000e+00	-1.793924e+02	3.024071e+00	0	0
4291328	2.261000e+00	-1.674874e+02	7.724656e+00	0	0
4293281	2.261298e+00	-1.740323e+02	-1.464076e+00	0	0
4295234	2.262000e+00	-1.520722e+02	1.292515e+00	0	0
4297188	2.262000e+00	-1.434215e+02	-4.029400e+00	0	0
4299141	2.262000e+00	-1.447527e+02	-9.881717e+00	0	0
4301094	2.262000e+00	-1.250949e+02	1.572014e+00	0	0
4303047	2.262000e+00	-1.484643e+02	-4.864871e-01	0	0
4305000	2.262000e+00	-1.475368e+02	3.739246e-01	0	0
4306953	2.262299e+00	-1.390058e+02	-1.009258e+00	0	0
4308906	2.263000e+00	-1.374360e+02	3.984153e+00	0	0
4310859	2.263000e+00	-1.063759e+02	1.006950e+01	0	0
4312813	2.263000e+00	-7.510373e+01	-1.794660e+00	0	0
4314766	2.263000e+00	-6.677052e+01	1.231897e+00	0	0
4316719	2.263000e+00	-5.015003e+01	-3.398060e+00	0	0
4318672	2.263000e+00	-8.063164e+01	-8.187953e+00	0	0
4320625	2.263300e+00	-8.191778e+01	1.293740e+00	0	0
4322578	2.264000e+00	-7.328558e+01	-3.663572e-01	0	0
4324531	2.264000e+00	-9.856584e+01	1.716732e-01	0	0
4326484	2.264000e+00	-9.945209e+01	-3.203464e-01	0	0
4328438	2.264000e+00	-1.074927e+02	1.209249e+00	0	0
4330391	2.264000e+00	-1.242691e+02	3.010729e+00	0	0
4332344	2.264000e+00	-1.494953e+02	-5.054768e-01	0	0
4334297	2.264300e+00	-1.339945e+02	2.443417e-01	0	0
4336250	2.265000e+00	-1.476400e+02	-5.105070e-01	0	0
4338203	2.265000e+00	-1.531993e+02	-1.179056e+00	0	0
4340156	2.265000e+00	-1.761490e+02	1.865580e-01	0	0
4342109	2.265300e+00	-1.964819e+02	-5.466369e-02	0	0
4344063	2.265699e+00	-2.282621e+02	3.213419e-02	0	0
4346016	2.265301e+00	-2.807334e+02	-7.384299e-02	0	0
4347969	2.266000e+00	-2.833383e+02	2.866769e-01	0	0
4349922	2.266000e+00	-2.895258e+02	7.246704e-01	0	0
4351875	2.266000e+00	-2.958963e+02	-1.468380e-01	0	0
4353828	2.266000e+00	-3.098536e+02	1.559441e-01	0	0
4355781	2.266000e+00	-3.137335e+02	-5.184677e-01	0	0
4357734	2.266000e+00	-3.235102e+02	-1.265276e+00	0	0
4359688	2.266302e+00	-3.374321e+02	1.998221e-01	0	0
4361641	2.267000e+00	-3.358839e+02	-5.275019e-02	0	0
4363594	2.267000e+00	-3.353454e+02	1.117553e-02	0	0
4365547	2.267000e+00	-3.577418e+02	8.049504e-03	0	0
4367500	2.267000e+00	-3.592794e+02	-1.997640e-02	0	0
4369453	2.267000e+00	-3.521920e+02	1.960157e+00	0	0
4371406	2.267302e+00	-3.611969e+02	3.013376e+00	0	0
4373359	2.268000e+00	-3.545197e+02	-5.279950e-01	0	0
4375313	2.268000e+00	-3.530295e+02	3.695279e-01	0	0
4377266	2.268000e+00	-3.579895e+02	-1.031621e+00	0	0
4379219	2.268000e+00	-3.737910e+02	-2.455583e+00	0	0
4381172	2.268302e+00	-3.654321e+02	3.885408e-01	0	0
4383125	2.269000e+00	-3.604651e+02	-1.041094e-01	0	0
4385078	2.269000e+00	-3.735355e+02	2.789107e-02	0	0
4387031	2.269000e+00	-3.718098e+02	-7.453340e-03	0	0
4388984	2.269000e+00	-3.743559e+02	1.921872e-03	0	0
4390938	2.269000e+00	-3.837273e+02	-2.337563e-04	0	0
4392891	2.269000e+00	-3.892815e+02	-9.877499e-04	0	0
4394844	2.269303e+00	-3.790862e+02	4.184988e-03	0	0
4396797	2.270000e+00	-3.921498e+02	-1.575304e-02	0	0
4398750	2.270000e+00	-3.943848e+02	6.727106e-02	0	0
4400703	2.270000e+00	-4.043545e+02	3.959459e-01	0	0
4402656	2.270000e+00	-4.026539e+02	3.101023e-01	0	0
4404609	2.270000e+00	-3.827982e+02	-3.846019e-02	0	0
4406563	2.270000e+00	-3.812392e+02	-1.300336e-02	0	0
4408516	2.270304e+00	-3.870057e+02	9.871534e-02	0	0
4410469	2.271000e+00	-3.933922e+02	2.364831e-01	0	0
4412422	2.271000e+00	-3.752277e+02	1.652236e-05	0	0
4414375	2.271000e+00	-3.791672e+02	3.745101e-01	0	0
4416328	2.271000e+00	-3.908918e+02	1.903282e-01	0	0
