time	gsr	ecg	emg_trapezius	emg_corrugator	emg_zygomaticus
1797	2.303000e+00	-4.117025e+00	1.776907e+02	0	0
3750	2.303000e+00	-2.511641e-01	1.618776e+02	0	0
5703	2.303000e+00	-8.678823e+00	1.259965e+01	0	0
7656	2.303000e+00	9.318046e+00	1.164660e+01	0	0
9609	2.303000e+00	-3.126948e+00	-1.397847e+02	0	0
11563	2.303000e+00	1.328633e+01	-1.767711e+02	0	0
13516	2.303000e+00	9.235693e+00	-1.282708e+02	0	0
15469	2.303000e+00	2.576639e-01	-9.392893e+00	0	0
17422	2.303000e+00	-1.589951e+01	9.360044e+00	0	0
19375	2.303000e+00	-2.338443e+01	-1.294465e-01	0	0
21328	2.303000e+00	-1.945980e+01	1.118621e+02	0	0
23281	2.303000e+00	-1.381563e+01	1.955493e+02	0	0
25234	2.303000e+00	-2.225844e+00	1.115401e+01	0	0
27188	2.303000e+00	1.329774e+01	-2.172132e+00	0	0
29141	2.303000e+00	7.487530e+00	-5.001677e+01	0	0
31094	2.303000e+00	3.559311e+00	-1.944813e+02	0	0
33047	2.303000e+00	4.568317e+00	-1.127560e+02	0	0
35000	2.303000e+00	-2.987685e+00	-1.941052e+01	0	0
36953	2.303000e+00	-5.339974e+00	-9.982158e+00	0	0
38906	2.303000e+00	-1.029983e+01	-1.225496e+01	0	0
40859	2.303000e+00	-2.079150e+00	7.960988e+01	0	0
42813	2.303921e+00	2.785947e+00	1.762376e+02	0	0
44766	2.304000e+00	1.056194e+01	6.757000e+01	0	0
46719	2.304000e+00	7.757727e+00	-5.134112e+00	0	0
48672	2.304000e+00	1.814048e+01	-3.916653e+01	0	0
50625	2.304000e+00	8.529558e+00	-1.733958e+02	0	0
52578	2.304000e+00	6.321870e+00	-1.255526e+02	0	0
54531	2.304000e+00	3.335422e+00	-6.658613e+01	0	0
56484	2.304000e+00	-5.305948e+00	-3.374729e+00	0	0
58438	2.304000e+00	-3.068639e+00	2.507786e+00	0	0
60391	2.304000e+00	-9.477414e-01	1.490332e+01	0	0
62344	2.304000e+00	-4.355390e+00	1.659981e+02	0	0
64297	2.304000e+00	7.482898e+00	1.116367e+02	0	0
66250	2.304000e+00	1.381395e+01	5.261200e+00	0	0
68203	2.304000e+00	2.071531e+01	-1.484948e+01	0	0
70156	2.304000e+00	1.078339e+01	-1.609592e+02	0	0
72109	2.304000e+00	1.422157e+01	-1.473644e+02	0	0
74063	2.304000e+00	8.965962e+00	-9.285540e+01	0	0
76016	2.304000e+00	-8.126205e-01	-3.863085e+00	0	0
77969	2.304000e+00	-1.338096e+01	5.792567e+00	0	0
79922	2.304000e+00	-1.790601e+01	-4.953858e+00	0	0
81875	2.304922e+00	-1.114565e+01	1.606906e+02	0	0
83828	2.304078e+00	6.269671e-01	1.622012e+02	0	0
85781	2.304000e+00	5.136196e+00	9.678277e+00	0	0
87734	2.304000e+00	1.392308e+01	1.240537e+01	0	0
89688	2.304000e+00	1.695080e+01	-1.448736e+02	0	0
91641	2.304922e+00	-2.221949e+00	-1.718408e+02	0	0
93594	2.305000e+00	-4.320531e+00	-1.306697e+02	0	0
95547	2.305000e+00	-9.531586e+00	1.283925e+00	0	0
97500	2.305000e+00	-6.056917e+00	1.114880e+01	0	0
99453	2.305000e+00	-1.502605e+01	1.714514e+00	0	0
101406	2.305000e+00	-1.144401e+01	1.316295e+02	0	0
103359	2.305000e+00	1.883412e+00	1.942964e+02	0	0
105313	2.305000e+00	6.688178e-01	1.459600e+01	0	0
107266	2.305000e+00	9.843867e-02	-4.193576e+00	0	0
109219	2.305000e+00	-6.425263e+00	-4.804945e+01	0	0
111172	2.305000e+00	-1.556392e+01	-1.924076e+02	0	0
113125	2.305000e+00	-5.742411e+00	-1.317209e+02	0	0
115078	2.305000e+00	-2.919524e+00	-2.204517e+01	0	0
117031	2.305000e+00	-7.675201e+00	-1.511595e+01	0	0
118984	2.305000e+00	-1.669890e+01	-1.843567e+01	0	0
120938	2.305000e+00	-1.596524e+01	8.828715e+01	0	0
122891	2.305000e+00	-1.352210e+01	1.707801e+02	0	0
124844	2.305000e+00	-4.952200e+00	5.062442e+01	0	0
126797	2.305000e+00	-1.274086e+01	-4.180566e+00	0	0
128750	2.305000e+00	-2.077011e+01	-3.682602e+01	0	0
130703	2.305000e+00	-3.684053e+01	-1.655290e+02	0	0
132656	2.305000e+00	-2.898765e+01	-1.264602e+02	0	0
134609	2.305000e+00	-2.482038e+01	-7.753641e+01	0	0
136563	2.305000e+00	-3.889743e+01	1.102831e+00	0	0
138516	2.305000e+00	-3.294170e+01	4.751198e+00	0	0
140469	2.305000e+00	-4.396910e+01	2.407385e+01	0	0
142422	2.305000e+00	-4.298063e+01	1.684639e+02	0	0
144375	2.305000e+00	-4.703489e+01	1.052749e+02	0	0
146328	2.305923e+00	-3.235250e+01	4.995949e+00	0	0
148281	2.306000e+00	-3.528072e+01	-5.979867e+00	0	0
150234	2.305077e+00	-2.688489e+01	-1.606178e+02	0	0
152188	2.305000e+00	-3.482939e+01	-1.398418e+02	0	0
154141	2.305924e+00	-3.481642e+01	-8.781432e+01	0	0
156094	2.306000e+00	-3.292289e+01	9.756782e-02	0	0
158047	2.306000e+00	-4.422483e+01	8.439075e+00	0	0
160000	2.306000e+00	-3.949657e+01	-1.512712e+00	0	0
161953	2.306000e+00	-4.033767e+01	1.718431e+02	0	0
163906	2.306000e+00	-3.885707e+01	1.594164e+02	0	0
165859	2.306000e+00	-3.561968e+01	1.426804e+01	0	0
167813	2.306000e+00	-1.959155e+01	1.457345e+01	0	0
169766	2.306000e+00	-3.480076e+01	-1.584232e+02	0	0
171719	2.306000e+00	-3.551883e+01	-1.736477e+02	0	0
173672	2.306000e+00	-3.555080e+01	-1.301091e+02	0	0
175625	2.306000e+00	-3.325477e+01	2.984770e+00	0	0
177578	2.306000e+00	-3.769642e+01	1.101705e+01	0	0
179531	2.306000e+00	-4.746551e+01	1.185664e-01	0	0
181484	2.306000e+00	-5.568926e+01	1.393724e+02	0	0
183438	2.306000e+00	-5.384767e+01	1.961994e+02	0	0
185391	2.306000e+00	-3.754637e+01	9.900172e+00	0	0
187344	2.306000e+00	-3.419848e+01	-2.657972e+00	0	0
189297	2.306000e+00	-2.924168e+01	-5.277597e+01	0	0
191250	2.306000e+00	-3.986495e+01	-1.960649e+02	0	0
193203	2.306000e+00	-4.657701e+01	-1.286716e+02	0	0
195156	2.306000e+00	-4.707604e+01	-1.883276e+01	0	0
197109	2.306000e+00	-5.377242e+01	-1.127652e+01	0	0
199063	2.306000e+00	-5.483847e+01	-1.418016e+01	0	0
201016	2.306000e+00	-5.460034e+01	9.867869e+01	0	0
202969	2.306000e+00	-4.718784e+01	1.790097e+02	0	0
204922	2.306000e+00	-4.635436e+01	5.006684e+01	0	0
206875	2.306000e+00	-4.241904e+01	-2.114384e+00	0	0
208828	2.306000e+00	-3.696830e+01	-3.158024e+01	0	0
210781	2.306000e+00	-4.231434e+01	-1.694140e+02	0	0
212734	2.306000e+00	-5.096848e+01	-1.161055e+02	0	0
214688	2.306000e+00	-5.213920e+01	-5.302456e+01	0	0
216641	2.306925e+00	-5.270590e+01	1.157970e+00	0	0
218594	2.307000e+00	-6.422602e+01	2.871099e+00	0	0
220547	2.307000e+00	-6.426665e+01	2.132208e+01	0	0
222500	2.307000e+00	-6.243078e+01	1.711660e+02	0	0
224453	2.306075e+00	-4.968160e+01	1.011918e+02	0	0
226406	2.306925e+00	-5.141517e+01	2.490445e-01	0	0
228359	2.307000e+00	-5.672074e+01	3.720920e-01	0	0
230313	2.307000e+00	-6.145476e+01	-1.673781e+02	0	0
232266	2.307000e+00	-7.113735e+01	-1.467476e+02	0	0
234219	2.307000e+00	-7.428991e+01	-7.494000e+01	0	0
236172	2.307000e+00	-7.917910e+01	-5.210571e+00	0	0
238125	2.307000e+00	-7.596675e+01	1.346699e+00	0	0
240078	2.307000e+00	-6.632763e+01	-7.397745e+00	0	0
242031	2.307000e+00	-5.631289e+01	1.658468e+02	0	0
243984	2.307000e+00	-5.349819e+01	1.536154e+02	0	0
245938	2.307000e+00	-5.475344e+01	5.563057e+00	0	0
247891	2.307000e+00	-4.001791e+01	6.220392e+00	0	0
249844	2.307000e+00	-4.952753e+01	-1.653803e+02	0	0
251797	2.307000e+00	-7.594869e+01	-1.688117e+02	0	0
253750	2.307000e+00	-6.795866e+01	-1.255419e+02	0	0
255703	2.307000e+00	-9.254657e+01	-3.984604e+00	0	0
257656	2.307000e+00	-9.629935e+01	4.713113e+00	0	0
259609	2.307000e+00	-9.452688e+01	-5.991906e+00	0	0
261563	2.307000e+00	-8.661614e+01	1.462387e+02	0	0
263516	2.307000e+00	-7.015589e+01	1.901450e+02	0	0
265469	2.307000e+00	-6.127383e+01	8.903382e+00	0	0
267422	2.307000e+00	-4.822373e+01	-1.255576e+00	0	0
269375	2.307000e+00	-6.635121e+01	-5.441485e+01	0	0
271328	2.307000e+00	-7.731162e+01	-1.804293e+02	0	0
273281	2.307000e+00	-8.231566e+01	-1.365195e+02	0	0
275234	2.307000e+00	-8.804288e+01	-7.382699e+00	0	0
277188	2.307000e+00	-9.982306e+01	-7.655849e-02	0	0
279141	2.307000e+00	-9.456706e+01	-4.949375e+00	0	0
281094	2.307000e+00	-8.910968e+01	8.150575e+01	0	0
283047	2.307000e+00	-8.233270e+01	1.810780e+02	0	0
285000	2.307000e+00	-7.719120e+01	2.655032e+01	0	0
286953	2.307000e+00	-8.072071e+01	-4.089740e-01	0	0
288906	2.307000e+00	-7.775483e+01	-5.634658e+01	0	0
290859	2.307000e+00	-7.873171e+01	-1.754800e+02	0	0
292813	2.307000e+00	-8.845524e+01	-1.001880e+02	0	0
294766	2.307928e+00	-9.707106e+01	-5.560226e+01	0	0
296719	2.308000e+00	-9.916421e+01	-1.594925e+00	0	0
298672	2.308000e+00	-9.682616e+01	7.950109e-01	0	0
300625	2.308000e+00	-9.798006e+01	4.839055e+01	0	0
302578	2.308000e+00	-8.535159e+01	1.754285e+02	0	0
304531	2.308000e+00	-6.632588e+01	9.663525e+01	0	0
306484	2.307072e+00	-6.627816e+01	4.481941e+00	0	0
308438	2.307928e+00	-4.907519e+01	-1.760749e+01	0	0
310391	2.308000e+00	-3.914199e+01	-1.675142e+02	0	0
312344	2.308000e+00	-3.124120e+01	-1.459363e+02	0	0
314297	2.308000e+00	-9.182858e+00	-8.535646e+01	0	0
316250	2.308000e+00	-3.077726e+00	-3.929810e-01	0	0
318203	2.308000e+00	6.523776e-01	6.772198e+00	0	0
320156	2.308000e+00	4.003231e+00	-4.061605e+00	0	0
322109	2.308000e+00	1.951938e+01	1.740709e+02	0	0
324063	2.308000e+00	3.141810e+01	1.349072e+02	0	0
326016	2.308000e+00	3.323764e+01	5.151443e+00	0	0
327969	2.308000e+00	3.633691e+01	8.028587e+00	0	0
329922	2.308000e+00	3.917302e+01	-1.720017e+02	0	0
331875	2.308000e+00	3.931005e+01	-1.650688e+02	0	0
333828	2.308000e+00	5.119909e+01	-1.322349e+02	0	0
335781	2.308000e+00	6.440779e+01	-6.117237e+00	0	0
337734	2.308000e+00	6.169380e+01	3.337007e+00	0	0
339688	2.308000e+00	7.876994e+01	-6.585820e+00	0	0
341641	2.308000e+00	8.852590e+01	1.617196e+02	0	0
343594	2.308000e+00	7.856794e+01	1.989594e+02	0	0
345547	2.308000e+00	1.013593e+02	8.747432e+00	0	0
347500	2.308000e+00	1.106695e+02	-1.092232e+00	0	0
349453	2.308000e+00	1.327929e+02	-6.812786e+01	0	0
351406	2.308000e+00	1.456747e+02	-1.912219e+02	0	0
353359	2.308000e+00	1.280334e+02	-1.045064e+02	0	0
355313	2.308000e+00	1.265895e+02	-3.885486e+00	0	0
357266	2.308000e+00	1.166336e+02	4.330553e-01	0	0
359219	2.308000e+00	1.185424e+02	-3.673595e+00	0	0
361172	2.308000e+00	1.076682e+02	8.169483e+01	0	0
363125	2.308000e+00	9.156479e+01	1.892585e+02	0	0
365078	2.308000e+00	1.003684e+02	3.940293e+01	0	0
367031	2.308000e+00	1.115072e+02	6.552772e-01	0	0
368984	2.308000e+00	1.099590e+02	-5.284849e+01	0	0
370938	2.308000e+00	1.056186e+02	-1.788623e+02	0	0
372891	2.308000e+00	7.651489e+01	-1.149632e+02	0	0
374844	2.308000e+00	5.418523e+01	-3.982396e+01	0	0
376797	2.308000e+00	4.716921e+01	-1.318902e+00	0	0
378750	2.308000e+00	1.656402e+01	-3.847542e+00	0	0
380703	2.308000e+00	-1.633719e+01	6.913597e+01	0	0
382656	2.308930e+00	-3.973934e+01	1.670454e+02	0	0
384609	2.308070e+00	-5.687003e+01	1.048600e+02	0	0
386563	2.308000e+00	-5.490565e+01	2.788642e+00	0	0
388516	2.308000e+00	-6.386533e+01	-1.410990e+01	0	0
390469	2.308930e+00	-7.129670e+01	-1.599539e+02	0	0
392422	2.309000e+00	-8.013581e+01	-1.599503e+02	0	0
394375	2.308070e+00	-9.590677e+01	-1.062458e+02	0	0
396328	2.308930e+00	-1.164108e+02	-2.773385e+00	0	0
398281	2.309000e+00	-1.335110e+02	5.736099e+00	0	0
400234	2.309000e+00	-1.286798e+02	-4.543193e+00	0	0
402188	2.309000e+00	-1.201054e+02	1.644167e+02	0	0
404141	2.308069e+00	-1.239079e+02	1.279259e+02	0	0
406094	2.308931e+00	-1.217541e+02	2.613769e+00	0	0
408047	2.309000e+00	-1.217466e+02	5.831955e+00	0	0
410000	2.309000e+00	-1.430637e+02	-1.667547e+02	0	0
411953	2.309000e+00	-1.492010e+02	-1.526043e+02	0	0
413906	2.309000e+00	-1.519554e+02	-1.115874e+02	0	0
415859	2.309000e+00	-1.591944e+02	-5.419546e+00	0	0
417813	2.309000e+00	-1.643767e+02	3.079720e+00	0	0
419766	2.309000e+00	-1.631794e+02	-6.977353e+00	0	0
421719	2.309000e+00	-1.654323e+02	1.727869e+02	0	0
423672	2.309000e+00	-1.539305e+02	1.875367e+02	0	0
425625	2.309000e+00	-1.555088e+02	4.645158e+00	0	0
427578	2.309000e+00	-1.492676e+02	-2.473069e+00	0	0
429531	2.309000e+00	-1.463431e+02	-7.965643e+01	0	0
431484	2.309000e+00	-1.501945e+02	-1.855302e+02	0	0
433438	2.309000e+00	-1.564188e+02	-1.272044e+02	0	0
435391	2.309000e+00	-1.616519e+02	-4.747220e+00	0	0
437344	2.309000e+00	-1.724739e+02	1.826455e+00	0	0
439297	2.309000e+00	-1.875034e+02	-2.596272e+00	0	0
441250	2.309000e+00	-1.718169e+02	8.675497e+01	0	0
443203	2.309000e+00	-1.605369e+02	1.942879e+02	0	0
445156	2.309000e+00	-1.547091e+02	2.524938e+01	0	0
447109	2.309000e+00	-1.536849e+02	1.467065e-01	0	0
449063	2.309000e+00	-1.552114e+02	-5.892666e+01	0	0
451016	2.309000e+00	-1.714375e+02	-1.832879e+02	0	0
452969	2.309000e+00	-1.777760e+02	-1.214951e+02	0	0
454922	2.309000e+00	-1.919857e+02	-3.497650e+01	0	0
456875	2.309000e+00	-1.822907e+02	-1.126617e+00	0	0
458828	2.309000e+00	-1.895356e+02	-3.498262e+00	0	0
460781	2.309000e+00	-1.711281e+02	6.226911e+01	0	0
462734	2.309000e+00	-1.733271e+02	1.771519e+02	0	0
464688	2.309000e+00	-1.694086e+02	8.785093e+01	0	0
466641	2.309000e+00	-1.962074e+02	1.449272e+00	0	0
468594	2.309000e+00	-2.305831e+02	-1.705898e+01	0	0
470547	2.309000e+00	-2.367134e+02	-1.714640e+02	0	0
472500	2.309000e+00	-2.249227e+02	-1.437690e+02	0	0
474453	2.309000e+00	-1.599758e+02	-8.959399e+01	0	0
476406	2.309000e+00	-9.029644e+01	-3.816334e+00	0	0
478359	2.309000e+00	-7.413444e+00	4.329380e+00	0	0
480313	2.309000e+00	5.758469e+01	-4.697885e+00	0	0
482266	2.309000e+00	1.885411e+02	1.721450e+02	0	0
484219	2.309000e+00	3.605735e+02	1.477427e+02	0	0
486172	2.309000e+00	6.465307e+02	3.579296e+00	0	0
488125	2.309000e+00	8.903598e+02	5.592432e+00	0	0
490078	2.309000e+00	1.118087e+03	-1.707527e+02	0	0
492031	2.309000e+00	1.354688e+03	-1.510370e+02	0	0
493984	2.309000e+00	1.578972e+03	-1.048152e+02	0	0
495938	2.309000e+00	1.767590e+03	-4.857184e+00	0	0
497891	2.309000e+00	1.740987e+03	2.892262e+00	0	0
499844	2.309000e+00	1.659602e+03	-7.791580e+00	0	0
501797	2.309000e+00	1.430223e+03	1.668610e+02	0	0
503750	2.309000e+00	1.062606e+03	1.820632e+02	0	0
505703	2.309000e+00	8.398335e+02	4.587838e+00	0	0
507656	2.309000e+00	6.567925e+02	6.001515e-02	0	0
509609	2.309000e+00	5.066826e+02	-8.840270e+01	0	0
511563	2.309000e+00	2.477761e+02	-1.792705e+02	0	0
513516	2.309000e+00	-9.754510e+01	-1.287418e+02	0	0
515469	2.309000e+00	-2.782875e+02	-4.892256e+00	0	0
517422	2.309000e+00	-3.371479e+02	1.899592e+00	0	0
519375	2.309000e+00	-3.699716e+02	-2.187716e+00	0	0
521328	2.309000e+00	-3.562999e+02	9.654827e+01	0	0
523281	2.309000e+00	-3.167023e+02	1.888708e+02	0	0
525234	2.309000e+00	-2.902871e+02	1.102181e+01	0	0
527188	2.309000e+00	-2.378911e+02	-3.872299e+00	0	0
529141	2.309000e+00	-2.023100e+02	-3.375296e+01	0	0
531094	2.309000e+00	-1.660231e+02	-1.788672e+02	0	0
533047	2.309000e+00	-1.594730e+02	-1.099275e+02	0	0
535000	2.309000e+00	-1.482957e+02	-3.398835e+01	0	0
536953	2.309000e+00	-1.368319e+02	-5.689062e+00	0	0
538906	2.309000e+00	-1.498818e+02	-8.057870e+00	0	0
540859	2.309000e+00	-1.522932e+02	7.135667e+01	0	0
542813	2.309000e+00	-1.491975e+02	1.704162e+02	0	0
544766	2.309000e+00	-1.338561e+02	8.802688e+01	0	0
546719	2.309000e+00	-1.485541e+02	1.499614e+00	0	0
548672	2.309000e+00	-1.543081e+02	-1.420516e+01	0	0
550625	2.309000e+00	-1.534844e+02	-1.664020e+02	0	0
552578	2.309934e+00	-1.665695e+02	-1.395360e+02	0	0
554531	2.310000e+00	-1.648182e+02	-9.912475e+01	0	0
556484	2.310000e+00	-1.692485e+02	-2.659484e+00	0	0
558438	2.310000e+00	-1.560230e+02	6.108879e+00	0	0
560391	2.310000e+00	-1.598684e+02	-3.219221e+00	0	0
562344	2.310000e+00	-1.567342e+02	1.728323e+02	0	0
564297	2.309065e+00	-1.473137e+02	1.197885e+02	0	0
566250	2.309935e+00	-1.450617e+02	6.780020e+00	0	0
568203	2.309065e+00	-1.459825e+02	1.172951e+01	0	0
570156	2.309935e+00	-1.373893e+02	-1.649987e+02	0	0
572109	2.310000e+00	-1.498973e+02	-1.558733e+02	0	0
574063	2.309065e+00	-1.521089e+02	-9.740494e+01	0	0
576016	2.309935e+00	-1.544182e+02	3.042814e+00	0	0
577969	2.310000e+00	-1.628429e+02	1.043871e+01	0	0
579922	2.310000e+00	-1.558951e+02	5.360778e-01	0	0
581875	2.310000e+00	-1.490103e+02	1.830525e+02	0	0
583828	2.310000e+00	-1.386725e+02	1.673682e+02	0	0
585781	2.310000e+00	-1.350732e+02	1.091247e+01	0	0
587734	2.310000e+00	-1.292756e+02	7.806531e+00	0	0
589688	2.310000e+00	-1.233096e+02	-1.163457e+02	0	0
591641	2.309064e+00	-1.540562e+02	-1.854144e+02	0	0
593594	2.309936e+00	-1.526099e+02	-1.271092e+02	0	0
595547	2.310000e+00	-1.347554e+02	-4.686838e+00	0	0
597500	2.310000e+00	-1.369887e+02	1.806905e+00	0	0
599453	2.310000e+00	-1.396964e+02	-2.572017e+00	0	0
601406	2.310000e+00	-1.412801e+02	8.942294e+01	0	0
603359	2.310000e+00	-1.336475e+02	1.910229e+02	0	0
605313	2.310000e+00	-1.224354e+02	1.219598e+01	0	0
607266	2.310000e+00	-1.170293e+02	-7.423450e+00	0	0
609219	2.310000e+00	-1.157645e+02	-5.741969e+01	0	0
611172	2.310000e+00	-1.196027e+02	-1.933146e+02	0	0
613125	2.310000e+00	-1.135673e+02	-1.159673e+02	0	0
615078	2.310000e+00	-1.178348e+02	-1.912625e+01	0	0
617031	2.310000e+00	-1.375067e+02	-1.107288e+01	0	0
618984	2.310000e+00	-1.289777e+02	-1.283314e+01	0	0
620938	2.310000e+00	-1.289988e+02	7.348850e+01	0	0
622891	2.310000e+00	-1.363044e+02	1.665438e+02	0	0
624844	2.310000e+00	-1.190065e+02	7.631786e+01	0	0
626797	2.310000e+00	-1.096160e+02	-3.831786e+00	0	0
628750	2.310000e+00	-1.149098e+02	-3.708792e+01	0	0
630703	2.310000e+00	-1.093235e+02	-1.656386e+02	0	0
632656	2.310000e+00	-1.147508e+02	-1.451831e+02	0	0
634609	2.310000e+00	-1.181879e+02	-8.211049e+01	0	0
636563	2.310000e+00	-1.067212e+02	-3.102805e+00	0	0
638516	2.310000e+00	-9.445958e+01	2.299778e+00	0	0
640469	2.310000e+00	-8.392772e+01	3.443658e-01	0	0
642422	2.310000e+00	-6.503790e+01	1.624828e+02	0	0
644375	2.310000e+00	-7.938107e+01	1.092298e+02	0	0
646328	2.310000e+00	-8.618811e+01	1.680318e+00	0	0
648281	2.310000e+00	-1.004927e+02	5.705728e+00	0	0
650234	2.310000e+00	-9.204110e+01	-1.594124e+02	0	0
652188	2.310000e+00	-9.988342e+01	-1.499776e+02	0	0
654141	2.310000e+00	-1.022803e+02	-1.059058e+02	0	0
656094	2.310000e+00	-9.831355e+01	8.266164e-01	0	0
658047	2.310000e+00	-8.830910e+01	9.775652e+00	0	0
660000	2.310000e+00	-8.006236e+01	4.753389e-01	0	0
661953	2.310000e+00	-8.292202e+01	1.698065e+02	0	0
663906	2.310000e+00	-7.986607e+01	1.662872e+02	0	0
665859	2.310000e+00	-6.142715e+01	1.277869e+01	0	0
667813	2.310000e+00	-5.983391e+01	1.476301e+01	0	0
669766	2.310000e+00	-5.138883e+01	-1.258294e+02	0	0
671719	2.310000e+00	-5.670221e+01	-1.699381e+02	0	0
673672	2.310000e+00	-5.470625e+01	-1.390806e+02	0	0
675625	2.310000e+00	-5.841182e+01	-4.801764e+00	0	0
677578	2.310000e+00	-5.159213e+01	1.164783e+01	0	0
679531	2.310000e+00	-4.856733e+01	5.236849e+00	0	0
681484	2.310000e+00	-3.897538e+01	1.060882e+02	0	0
683438	2.310000e+00	-3.564201e+01	1.977423e+02	0	0
685391	2.310000e+00	-3.535162e+01	9.232236e+00	0	0
687344	2.310000e+00	-9.246740e+00	-3.029336e+00	0	0
689297	2.310000e+00	-1.679870e+01	-5.923247e+01	0	0
691250	2.310000e+00	-9.501312e+00	-1.935272e+02	0	0
693203	2.310000e+00	2.145691e+00	-1.102579e+02	0	0
695156	2.310000e+00	1.738845e+01	-2.091692e+01	0	0
697109	2.310000e+00	1.652907e+01	-1.843428e+01	0	0
699063	2.310000e+00	4.165011e+01	-2.174499e+01	0	0
701016	2.310000e+00	4.977029e+01	8.425404e+01	0	0
702969	2.310000e+00	6.087780e+01	1.696969e+02	0	0
704922	2.310000e+00	5.315326e+01	7.425611e+01	0	0
706875	2.310000e+00	5.653220e+01	-4.226553e+00	0	0
708828	2.310000e+00	7.939183e+01	-3.289258e+01	0	0
710781	2.310000e+00	1.021365e+02	-1.669149e+02	0	0
712734	2.310000e+00	9.037412e+01	-1.303441e+02	0	0
714688	2.310000e+00	1.030454e+02	-7.225349e+01	0	0
716641	2.310000e+00	9.867058e+01	7.091193e+00	0	0
718594	2.309061e+00	1.272288e+02	1.106493e+01	0	0
720547	2.309939e+00	1.433322e+02	3.357192e+00	0	0
722500	2.310000e+00	1.543418e+02	1.733930e+02	0	0
724453	2.309061e+00	1.751552e+02	1.171105e+02	0	0
726406	2.309939e+00	1.814220e+02	2.132862e+00	0	0
728359	2.310000e+00	1.825233e+02	7.304855e+00	0	0
730313	2.310000e+00	1.931057e+02	-1.700530e+02	0	0
732266	2.310000e+00	1.947419e+02	-1.626032e+02	0	0
734219	2.310000e+00	1.949849e+02	-8.345165e+01	0	0
736172	2.310000e+00	2.039370e+02	-5.930099e+00	0	0
738125	2.310000e+00	2.083511e+02	-6.914138e-02	0	0
740078	2.310000e+00	2.325795e+02	-6.769033e+00	0	0
742031	2.310000e+00	2.504304e+02	1.703211e+02	0	0
743984	2.310000e+00	2.712607e+02	1.613733e+02	0	0
745938	2.309060e+00	2.743096e+02	9.267420e+00	0	0
747891	2.309940e+00	2.810576e+02	8.354668e+00	0	0
749844	2.309060e+00	2.997056e+02	-1.401036e+02	0	0
751797	2.309940e+00	3.055829e+02	-1.707257e+02	0	0
753750	2.310000e+00	2.992581e+02	-1.381372e+02	0	0
755703	2.310000e+00	2.992838e+02	1.163314e+00	0	0
757656	2.310000e+00	2.855443e+02	1.133991e+01	0	0
759609	2.310000e+00	2.802494e+02	4.300571e+00	0	0
761563	2.310000e+00	2.953346e+02	1.051230e+02	0	0
763516	2.309059e+00	3.150090e+02	1.879511e+02	0	0
765469	2.309000e+00	2.888270e+02	8.913730e+00	0	0
767422	2.309941e+00	3.068573e+02	-1.040888e+00	0	0
769375	2.310000e+00	2.937688e+02	-3.743755e+01	0	0
771328	2.309059e+00	2.721319e+02	-1.858890e+02	0	0
773281	2.309941e+00	2.658126e+02	-1.318261e+02	0	0
775234	2.309059e+00	2.459905e+02	-1.549372e+01	0	0
777188	2.309941e+00	2.100234e+02	-9.579794e+00	0	0
779141	2.309059e+00	1.695529e+02	-1.089684e+01	0	0
781094	2.309000e+00	1.347075e+02	7.839286e+01	0	0
783047	2.309941e+00	1.269943e+02	1.720727e+02	0	0
785000	2.310000e+00	1.105316e+02	5.770018e+01	0	0
786953	2.309059e+00	9.073814e+01	-2.094106e+00	0	0
788906	2.309000e+00	7.361609e+01	-4.344577e+01	0	0
790859	2.309000e+00	4.141310e+01	-1.664528e+02	0	0
792813	2.309941e+00	1.358957e+01	-1.272410e+02	0	0
794766	2.309059e+00	-1.613093e+01	-8.702181e+01	0	0
796719	2.309000e+00	-4.239221e+01	2.571739e+00	0	0
798672	2.309000e+00	-5.926608e+01	7.069772e+00	0	0
800625	2.309941e+00	-8.502727e+01	1.131713e+01	0	0
802578	2.309059e+00	-1.020427e+02	1.700407e+02	0	0
804531	2.309000e+00	-1.036344e+02	1.126406e+02	0	0
806484	2.309000e+00	-1.166577e+02	3.810254e+00	0	0
808438	2.309000e+00	-1.305024e+02	-4.023482e+00	0	0
810391	2.309000e+00	-1.461166e+02	-1.636325e+02	0	0
812344	2.309000e+00	-1.566609e+02	-1.486947e+02	0	0
814297	2.309000e+00	-1.679640e+02	-9.704055e+01	0	0
816250	2.309000e+00	-1.706217e+02	2.864635e+00	0	0
818203	2.309000e+00	-2.015299e+02	9.215095e+00	0	0
820156	2.309000e+00	-2.052558e+02	5.468875e-01	0	0
822109	2.309000e+00	-2.071317e+02	1.746897e+02	0	0
824063	2.309000e+00	-2.033274e+02	1.549502e+02	0	0
826016	2.309000e+00	-2.119226e+02	1.204031e+01	0	0
827969	2.309000e+00	-2.169556e+02	1.199600e+01	0	0
829922	2.309000e+00	-2.196950e+02	-1.458441e+02	0	0
831875	2.309000e+00	-2.282441e+02	-1.741857e+02	0	0
833828	2.309000e+00	-2.307622e+02	-1.333850e+02	0	0
835781	2.309000e+00	-2.481697e+02	-1.252229e+01	0	0
837734	2.309000e+00	-2.428624e+02	6.342983e+00	0	0
839688	2.309000e+00	-2.404004e+02	1.500457e-01	0	0
841641	2.309000e+00	-2.305215e+02	1.295698e+02	0	0
843594	2.309000e+00	-2.406652e+02	1.909554e+02	0	0
845547	2.309000e+00	-2.243955e+02	8.191127e+00	0	0
847500	2.309000e+00	-2.356199e+02	5.085703e-01	0	0
849453	2.309000e+00	-2.518409e+02	-6.665532e+01	0	0
851406	2.309000e+00	-2.480251e+02	-1.840030e+02	0	0
853359	2.309000e+00	-2.404399e+02	-1.203963e+02	0	0
855313	2.309000e+00	-2.521999e+02	-1.114447e+01	0	0
857266	2.309000e+00	-2.688437e+02	-7.164951e+00	0	0
859219	2.309000e+00	-2.629687e+02	-1.018477e+01	0	0
861172	2.309000e+00	-2.622374e+02	7.971090e+01	0	0
863125	2.309000e+00	-2.617609e+02	1.714946e+02	0	0
865078	2.309000e+00	-2.594123e+02	6.684641e+01	0	0
867031	2.309000e+00	-2.572046e+02	-4.795260e+00	0	0
868984	2.309000e+00	-2.620076e+02	-5.725997e+01	0	0
870938	2.309000e+00	-2.475169e+02	-1.772205e+02	0	0
872891	2.309000e+00	-2.612612e+02	-1.216587e+02	0	0
874844	2.309000e+00	-2.557643e+02	-6.832370e+01	0	0
876797	2.309000e+00	-2.535971e+02	-3.349990e+00	0	0
878750	2.309000e+00	-2.445215e+02	5.730022e-02	0	0
880703	2.309000e+00	-2.587148e+02	3.031508e+01	0	0
882656	2.309000e+00	-2.652516e+02	1.732238e+02	0	0
884609	2.309000e+00	-2.613089e+02	9.953220e+01	0	0
886563	2.309000e+00	-2.529320e+02	1.808738e+00	0	0
888516	2.309000e+00	-2.579464e+02	6.185146e+00	0	0
890469	2.309000e+00	-2.546158e+02	-1.665208e+02	0	0
892422	2.309000e+00	-2.618660e+02	-1.497025e+02	0	0
894375	2.309000e+00	-2.599750e+02	-9.346316e+01	0	0
896328	2.309000e+00	-2.719018e+02	1.560312e-01	0	0
898281	2.309000e+00	-2.805480e+02	7.212518e+00	0	0
900234	2.309000e+00	-2.777148e+02	2.213038e-01	0	0
902188	2.309000e+00	-2.895593e+02	1.765726e+02	0	0
904141	2.309000e+00	-2.839909e+02	1.408918e+02	0	0
906094	2.309000e+00	-2.660375e+02	1.234996e+01	0	0
908047	2.309000e+00	-2.477504e+02	1.410492e+01	0	0
910000	2.309000e+00	-2.512732e+02	-1.557913e+02	0	0
911953	2.309000e+00	-2.643998e+02	-1.703646e+02	0	0
913906	2.309000e+00	-2.808037e+02	-1.273860e+02	0	0
915859	2.309000e+00	-2.624898e+02	-4.532797e+00	0	0
917813	2.309000e+00	-2.719260e+02	1.059573e+01	0	0
919766	2.309000e+00	-2.765626e+02	-3.957026e-01	0	0
921719	2.309000e+00	-2.754828e+02	1.415925e+02	0	0
923672	2.309000e+00	-2.569040e+02	1.938261e+02	0	0
925625	2.308055e+00	-2.565496e+02	7.829315e+00	0	0
927578	2.308945e+00	-2.475116e+02	-4.344036e+00	0	0
929531	2.309000e+00	-2.481019e+02	-4.817288e+01	0	0
931484	2.308055e+00	-2.551444e+02	-1.980282e+02	0	0
933438	2.308945e+00	-2.588912e+02	-1.172567e+02	0	0
935391	2.309000e+00	-2.621367e+02	-1.417357e+01	0	0
937344	2.308055e+00	-2.707168e+02	-7.841897e+00	0	0
939297	2.308945e+00	-2.643627e+02	-1.064091e+01	0	0
941250	2.308055e+00	-2.593545e+02	8.789648e+01	0	0
943203	2.308000e+00	-2.604339e+02	1.806737e+02	0	0
945156	2.308000e+00	-2.438080e+02	5.088308e+01	0	0
947109	2.308000e+00	-2.378638e+02	1.178207e+00	0	0
949063	2.308000e+00	-2.340044e+02	-5.639159e+01	0	0
951016	2.308000e+00	-2.458878e+02	-1.757340e+02	0	0
952969	2.308000e+00	-2.596441e+02	-1.202042e+02	0	0
954922	2.308000e+00	-2.544878e+02	-7.904848e+01	0	0
956875	2.308000e+00	-2.547608e+02	-2.154200e+00	0	0
958828	2.308000e+00	-2.535351e+02	1.737455e+00	0	0
960781	2.308000e+00	-2.359897e+02	3.011740e+01	0	0
962734	2.308000e+00	-2.389656e+02	1.704465e+02	0	0
964688	2.308000e+00	-2.427005e+02	9.807569e+01	0	0
966641	2.308000e+00	-2.386519e+02	2.338663e+00	0	0
968594	2.308000e+00	-2.564514e+02	-9.315231e+00	0	0
970547	2.308000e+00	-2.515305e+02	-1.649619e+02	0	0
972500	2.308000e+00	-2.466621e+02	-1.509467e+02	0	0
974453	2.308000e+00	-2.388748e+02	-9.425800e+01	0	0
976406	2.308000e+00	-2.258284e+02	-5.651208e-01	0	0
978359	2.308000e+00	-2.559331e+02	6.018614e+00	0	0
980313	2.308000e+00	-2.486487e+02	-6.259153e-01	0	0
982266	2.308000e+00	-2.558411e+02	1.728633e+02	0	0
984219	2.308000e+00	-2.631446e+02	1.437263e+02	0	0
986172	2.308000e+00	-2.577951e+02	1.115421e+01	0	0
988125	2.308000e+00	-2.539000e+02	1.356800e+01	0	0
990078	2.308000e+00	-2.450261e+02	-1.591627e+02	0	0
992031	2.308000e+00	-2.428265e+02	-1.713507e+02	0	0
993984	2.308000e+00	-2.334054e+02	-1.223872e+02	0	0
995938	2.308000e+00	-2.324030e+02	-5.298915e+00	0	0
997891	2.308000e+00	-2.467898e+02	6.424594e+00	0	0
999844	2.308000e+00	-2.574531e+02	-1.741054e+00	0	0
1001797	2.308000e+00	-2.576688e+02	1.350546e+02	0	0
1003750	2.308000e+00	-2.666370e+02	1.914039e+02	0	0
1005703	2.308000e+00	-2.685179e+02	6.972645e+00	0	0
1007656	2.308000e+00	-2.600173e+02	-6.166577e-01	0	0
1009609	2.308000e+00	-2.522316e+02	-6.366670e+01	0	0
1011563	2.308000e+00	-2.570405e+02	-1.876491e+02	0	0
1013516	2.308000e+00	-2.531184e+02	-1.317585e+02	0	0
1015469	2.308000e+00	-2.425461e+02	-1.210446e+01	0	0
1017422	2.308000e+00	-2.602247e+02	-6.245783e+00	0	0
1019375	2.308000e+00	-2.714737e+02	-7.858803e+00	0	0
1021328	2.308000e+00	-2.701326e+02	8.338354e+01	0	0
1023281	2.308000e+00	-2.623660e+02	1.742154e+02	0	0
1025234	2.308000e+00	-2.466446e+02	3.967168e+01	0	0
1027188	2.308000e+00	-2.525303e+02	-5.110373e-01	0	0
1029141	2.308000e+00	-2.370398e+02	-5.822507e+01	0	0
1031094	2.308000e+00	-2.592187e+02	-1.697311e+02	0	0
1033047	2.307052e+00	-2.719479e+02	-1.173726e+02	0	0
1035000	2.307000e+00	-2.549349e+02	-6.676869e+01	0	0
1036953	2.307948e+00	-2.800366e+02	-1.529940e+00	0	0
1038906	2.308000e+00	-2.832814e+02	2.660351e-01	0	0
1040859	2.307052e+00	-2.768683e+02	4.953208e+01	0	0
1042813	2.307000e+00	-2.608593e+02	1.707858e+02	0	0
1044766	2.307000e+00	-2.490878e+02	1.055451e+02	0	0
1046719	2.307000e+00	-2.401132e+02	3.395420e+00	0	0
1048672	2.307000e+00	-2.412174e+02	-8.622652e+00	0	0
1050625	2.307000e+00	-2.292637e+02	-1.664365e+02	0	0
1052578	2.307000e+00	-2.386155e+02	-1.414681e+02	0	0
1054531	2.307000e+00	-2.373831e+02	-9.634336e+01	0	0
1056484	2.307000e+00	-2.406736e+02	-2.722822e+00	0	0
1058438	2.307000e+00	-2.443559e+02	2.554415e+00	0	0
1060391	2.307000e+00	-2.319878e+02	-5.241500e+00	0	0
1062344	2.307000e+00	-2.032786e+02	1.698286e+02	0	0
1064297	2.307000e+00	-1.613902e+02	1.343203e+02	0	0
1066250	2.307000e+00	-1.508933e+02	2.407805e+00	0	0
1068203	2.307000e+00	-1.365076e+02	4.566051e+00	0	0
1070156	2.307000e+00	-1.315220e+02	-1.696821e+02	0	0
1072109	2.307000e+00	-1.288359e+02	-1.660346e+02	0	0
1074063	2.307000e+00	-1.476115e+02	-1.107008e+02	0	0
1076016	2.307000e+00	-1.479536e+02	-3.461558e+00	0	0
1077969	2.307000e+00	-1.467588e+02	2.349883e+00	0	0
1079922	2.307000e+00	-1.480971e+02	-4.681840e+00	0	0
1081875	2.307000e+00	-1.389376e+02	1.649425e+02	0	0
1083828	2.307000e+00	-1.033729e+02	1.843977e+02	0	0
1085781	2.307000e+00	-7.825417e+01	5.211714e+00	0	0
1087734	2.307000e+00	-6.243577e+01	2.016690e-01	0	0
1089688	2.307000e+00	-4.809794e+01	-7.576385e+01	0	0
1091641	2.307000e+00	-5.724855e+01	-1.758947e+02	0	0
1093594	2.307000e+00	-5.707383e+01	-1.388154e+02	0	0
1095547	2.307000e+00	-7.480892e+01	-7.980032e+00	0	0
1097500	2.307000e+00	-6.857957e+01	1.511248e+00	0	0
1099453	2.307000e+00	-3.257365e+01	-1.882347e+00	0	0
1101406	2.307000e+00	-1.220155e+01	8.754180e+01	0	0
1103359	2.307000e+00	-8.951452e+00	1.812559e+02	0	0
1105313	2.307000e+00	-1.793383e+01	2.897825e+01	0	0
1107266	2.306050e+00	-2.411605e+01	-3.409351e-02	0	0
1109219	2.306950e+00	-1.559676e+01	-5.254461e+01	0	0
1111172	2.306050e+00	-2.905015e+01	-1.753724e+02	0	0
1113125	2.306950e+00	-4.011191e+01	-1.098231e+02	0	0
1115078	2.306050e+00	-4.978137e+01	-5.090802e+01	0	0
1117031	2.306950e+00	-6.138257e+01	-1.101726e+00	0	0
1118984	2.307000e+00	-5.242662e+01	-1.636193e-01	0	0
1120938	2.306049e+00	-5.748752e+01	5.062907e+01	0	0
1122891	2.306000e+00	-6.297676e+01	1.683752e+02	0	0
1124844	2.306000e+00	-7.524008e+01	1.044253e+02	0	0
1126797	2.306000e+00	-8.531838e+01	2.049556e+00	0	0
1128750	2.306000e+00	-1.072952e+02	-1.779054e+01	0	0
1130703	2.306000e+00	-1.321652e+02	-1.625721e+02	0	0
1132656	2.306000e+00	-1.638992e+02	-1.468941e+02	0	0
1134609	2.306000e+00	-1.955511e+02	-8.184795e+01	0	0
1136563	2.306000e+00	-2.230021e+02	-2.419692e+00	0	0
1138516	2.306000e+00	-2.487984e+02	1.971779e+00	0	0
1140469	2.306000e+00	-2.568771e+02	-4.796486e+00	0	0
1142422	2.306000e+00	-2.549612e+02	1.608029e+02	0	0
1144375	2.306000e+00	-2.639903e+02	1.340589e+02	0	0
1146328	2.306000e+00	-2.429540e+02	2.379334e+00	0	0
1148281	2.306000e+00	-2.529826e+02	3.905119e+00	0	0
1150234	2.306000e+00	-2.548554e+02	-1.608818e+02	0	0
1152188	2.306000e+00	-2.709051e+02	-1.651675e+02	0	0
1154141	2.306000e+00	-2.938936e+02	-1.097427e+02	0	0
1156094	2.306000e+00	-2.883590e+02	-3.339766e+00	0	0
1158047	2.306000e+00	-2.957621e+02	2.160494e+00	0	0
1160000	2.306000e+00	-2.953928e+02	-4.637779e+00	0	0
1161953	2.306000e+00	-3.119645e+02	1.660136e+02	0	0
1163906	2.306000e+00	-2.945629e+02	1.801730e+02	0	0
1165859	2.306000e+00	-2.999653e+02	5.134115e+00	0	0
1167813	2.306000e+00	-3.073368e+02	2.591659e-02	0	0
1169766	2.306000e+00	-3.004176e+02	-7.030541e+01	0	0
1171719	2.306000e+00	-3.087270e+02	-1.746547e+02	0	0
1173672	2.306000e+00	-3.097678e+02	-1.255616e+02	0	0
1175625	2.306000e+00	-3.058090e+02	-3.328670e+00	0	0
1177578	2.306000e+00	-3.150908e+02	1.621010e+00	0	0
1179531	2.306000e+00	-3.246697e+02	-2.497049e+00	0	0
1181484	2.306000e+00	-3.259904e+02	1.064143e+02	0	0
1183438	2.306000e+00	-3.115344e+02	1.810769e+02	0	0
1185391	2.305048e+00	-3.085906e+02	2.967314e+01	0	0
1187344	2.305000e+00	-2.911471e+02	1.915922e-01	0	0
1189297	2.305000e+00	-2.990327e+02	-5.533649e+01	0	0
1191250	2.305000e+00	-3.122373e+02	-1.753794e+02	0	0
1193203	2.305000e+00	-3.169113e+02	-1.135021e+02	0	0
1195156	2.305000e+00	-3.153460e+02	-4.469668e+01	0	0
1197109	2.305000e+00	-3.188806e+02	-6.913515e-01	0	0
1199063	2.305000e+00	-3.199342e+02	-4.141009e-01	0	0
1201016	2.305000e+00	-3.179418e+02	5.767195e+01	0	0
1202969	2.305000e+00	-3.181128e+02	1.730372e+02	0	0
1204922	2.305000e+00	-3.104796e+02	9.126518e+01	0	0
1206875	2.305000e+00	-2.979641e+02	1.214762e+00	0	0
1208828	2.305000e+00	-2.905636e+02	-1.459204e+01	0	0
1210781	2.305000e+00	-2.899031e+02	-1.685605e+02	0	0
1212734	2.305000e+00	-3.027909e+02	-1.382249e+02	0	0
1214688	2.305000e+00	-3.058703e+02	-7.284902e+01	0	0
1216641	2.305000e+00	-3.377118e+02	-2.091682e+00	0	0
1218594	2.305000e+00	-3.702258e+02	1.891998e+00	0	0
1220547	2.305000e+00	-3.848763e+02	-4.827527e+00	0	0
1222500	2.305000e+00	-3.817356e+02	1.673832e+02	0	0
1224453	2.305000e+00	-3.388287e+02	1.288039e+02	0	0
1226406	2.305000e+00	-2.843091e+02	1.878356e+00	0	0
1228359	2.305000e+00	-1.886559e+02	4.157979e+00	0	0
1230313	2.305000e+00	-7.411373e+01	-1.674135e+02	0	0
1232266	2.305000e+00	3.356827e+01	-1.486441e+02	0	0
1234219	2.305000e+00	1.642086e+02	-1.059355e+02	0	0
1236172	2.305000e+00	3.500728e+02	-3.244316e+00	0	0
1238125	2.305000e+00	5.891971e+02	2.067169e+00	0	0
1240078	2.305000e+00	8.218562e+02	-4.388069e+00	0	0
1242031	2.305000e+00	1.087280e+03	1.657056e+02	0	0
1243984	2.304046e+00	1.336912e+03	1.825368e+02	0	0
1245938	2.304000e+00	1.550676e+03	3.664043e+00	0	0
1247891	2.304000e+00	1.670800e+03	-4.040870e-01	0	0
1249844	2.304000e+00	1.605178e+03	-8.650437e+01	0	0
1251797	2.304000e+00	1.455978e+03	-1.788931e+02	0	0
1253750	2.304000e+00	1.096098e+03	-1.291233e+02	0	0
1255703	2.304000e+00	8.424306e+02	-7.487759e+00	0	0
1257656	2.304000e+00	6.145483e+02	1.240562e+00	0	0
1259609	2.304000e+00	4.321366e+02	-4.681119e-01	0	0
1261563	2.304000e+00	2.698971e+02	9.661758e+01	0	0
1263516	2.304000e+00	2.412971e+01	1.920052e+02	0	0
1265469	2.304000e+00	-1.688636e+02	7.553692e+00	0	0
1267422	2.304000e+00	-2.927488e+02	-4.958873e-01	0	0
1269375	2.304000e+00	-3.746029e+02	-6.646230e+01	0	0
1271328	2.304000e+00	-4.254166e+02	-1.835299e+02	0	0
1273281	2.304000e+00	-4.347376e+02	-1.198708e+02	0	0
1275234	2.304000e+00	-4.380843e+02	-3.077071e+01	0	0
1277188	2.304000e+00	-3.906509e+02	-1.729165e+00	0	0
1279141	2.304000e+00	-3.795007e+02	-3.654604e+00	0	0
1281094	2.304000e+00	-3.417967e+02	7.131178e+01	0	0
1283047	2.304000e+00	-3.036456e+02	1.781930e+02	0	0
1285000	2.304000e+00	-2.711962e+02	1.014515e+02	0	0
1286953	2.304000e+00	-2.417294e+02	1.427467e+00	0	0
1288906	2.304000e+00	-2.152755e+02	-1.315996e+01	0	0
1290859	2.304000e+00	-2.275614e+02	-1.728744e+02	0	0
1292813	2.304000e+00	-2.340964e+02	-1.309135e+02	0	0
1294766	2.304000e+00	-2.508755e+02	-8.167577e+01	0	0
1296719	2.304000e+00	-2.674299e+02	-2.414679e+00	0	0
1298672	2.304000e+00	-2.570485e+02	1.878965e+00	0	0
1300625	2.304000e+00	-2.554516e+02	-1.508601e+00	0	0
1302578	2.303044e+00	-2.539585e+02	1.722356e+02	0	0
1304531	2.303000e+00	-2.446329e+02	1.107716e+02	0	0
1306484	2.303000e+00	-2.354993e+02	1.030420e+00	0	0
1308438	2.303000e+00	-2.327362e+02	4.189357e+00	0	0
1310391	2.303000e+00	-2.283956e+02	-1.712339e+02	0	0
1312344	2.303000e+00	-2.400933e+02	-1.564343e+02	0	0
1314297	2.303000e+00	-2.377945e+02	-1.165505e+02	0	0
1316250	2.303000e+00	-2.380176e+02	-3.300566e+00	0	0
1318203	2.303000e+00	-2.367035e+02	2.432932e+00	0	0
1320156	2.303000e+00	-2.235772e+02	-4.004601e+00	0	0
1322109	2.303000e+00	-2.157098e+02	1.712925e+02	0	0
1324063	2.303000e+00	-2.164854e+02	1.732079e+02	0	0
1326016	2.303000e+00	-2.230467e+02	4.035955e+00	0	0
1327969	2.303000e+00	-2.168650e+02	9.220466e-01	0	0
1329922	2.303000e+00	-2.169254e+02	-9.576147e+01	0	0
1331875	2.303000e+00	-2.209981e+02	-1.774001e+02	0	0
1333828	2.303000e+00	-2.285923e+02	-1.323565e+02	0	0
1335781	2.303000e+00	-2.217150e+02	-3.308091e+00	0	0
1337734	2.303000e+00	-2.250054e+02	1.506466e+00	0	0
1339688	2.303000e+00	-2.257234e+02	-2.128489e+00	0	0
1341641	2.303000e+00	-2.124430e+02	1.038796e+02	0	0
1343594	2.303000e+00	-1.995664e+02	1.822224e+02	0	0
1345547	2.303000e+00	-1.983820e+02	1.219890e+01	0	0
1347500	2.303000e+00	-1.899084e+02	-3.233647e+00	0	0
1349453	2.303000e+00	-1.882609e+02	-4.801459e+01	0	0
1351406	2.303000e+00	-2.017614e+02	-1.801588e+02	0	0
1353359	2.303000e+00	-1.971862e+02	-1.055325e+02	0	0
1355313	2.303000e+00	-1.973597e+02	-3.195139e+01	0	0
1357266	2.303000e+00	-1.982215e+02	-6.333179e-01	0	0
1359219	2.303000e+00	-1.947953e+02	-8.847837e-01	0	0
1361172	2.302042e+00	-1.821424e+02	7.200800e+01	0	0
1363125	2.302000e+00	-1.877991e+02	1.756558e+02	0	0
1365078	2.302000e+00	-1.810773e+02	7.110419e+01	0	0
1367031	2.302000e+00	-1.693618e+02	9.054104e-01	0	0
1368984	2.302000e+00	-1.779115e+02	-3.163247e+01	0	0
1370938	2.302000e+00	-1.648530e+02	-1.716763e+02	0	0
1372891	2.302000e+00	-1.730636e+02	-1.431050e+02	0	0
1374844	2.302000e+00	-1.601673e+02	-8.866868e+01	0	0
1376797	2.302000e+00	-1.662499e+02	1.088388e+00	0	0
1378750	2.302000e+00	-1.604986e+02	6.318293e+00	0	0
1380703	2.302000e+00	-1.572852e+02	3.083069e-01	0	0
1382656	2.302000e+00	-1.560298e+02	1.810094e+02	0	0
1384609	2.302000e+00	-1.471302e+02	1.249130e+02	0	0
1386563	2.302000e+00	-1.530492e+02	7.429722e+00	0	0
1388516	2.302000e+00	-1.304839e+02	1.049387e+01	0	0
1390469	2.302000e+00	-1.345322e+02	-1.703446e+02	0	0
1392422	2.302000e+00	-1.341558e+02	-1.473508e+02	0	0
1394375	2.302000e+00	-1.439033e+02	-9.146188e+01	0	0
1396328	2.302000e+00	-1.412075e+02	3.080740e+00	0	0
1398281	2.302000e+00	-1.414669e+02	7.047295e+00	0	0
1400234	2.302000e+00	-1.403173e+02	1.711424e-01	0	0
1402188	2.302000e+00	-1.378953e+02	1.804891e+02	0	0
1404141	2.302000e+00	-1.116182e+02	1.735585e+02	0	0
1406094	2.302000e+00	-1.101587e+02	5.214395e+00	0	0
1408047	2.302000e+00	-1.049789e+02	2.288805e+00	0	0
1410000	2.302000e+00	-1.002587e+02	-1.260147e+02	0	0
1411953	2.302000e+00	-1.063917e+02	-1.826915e+02	0	0
1413906	2.302000e+00	-9.824060e+01	-1.232866e+02	0	0
1415859	2.301041e+00	-9.366953e+01	-2.857136e+00	0	0
1417813	2.301000e+00	-9.264847e+01	1.318959e+00	0	0
1419766	2.301959e+00	-8.709203e+01	-1.938980e+00	0	0
1421719	2.301041e+00	-9.247642e+01	1.037079e+02	0	0
1423672	2.301000e+00	-8.190098e+01	1.831085e+02	0	0
1425625	2.301000e+00	-5.307986e+01	7.987138e+00	0	0
1427578	2.301000e+00	-5.942891e+01	-6.262261e+00	0	0
1429531	2.301000e+00	-3.042090e+01	-5.905072e+01	0	0
1431484	2.301000e+00	-3.460684e+01	-1.839154e+02	0	0
1433438	2.301000e+00	-2.873509e+01	-9.837485e+01	0	0
1435391	2.301000e+00	-2.241079e+01	-1.744654e+01	0	0
1437344	2.301000e+00	-1.699813e+01	-9.993290e+00	0	0
1439297	2.301000e+00	-1.737917e+01	-1.255800e+01	0	0
1441250	2.301000e+00	-2.315856e+01	9.005637e+01	0	0
1443203	2.301000e+00	-2.986014e+01	1.633987e+02	0	0
1445156	2.301000e+00	-1.462584e+01	8.443496e+01	0	0
1447109	2.301000e+00	2.543103e+01	-2.767558e+00	0	0
1449063	2.301000e+00	2.812180e+01	-1.871525e+01	0	0
1451016	2.301000e+00	4.485901e+01	-1.644717e+02	0	0
1452969	2.301000e+00	5.229025e+01	-1.408688e+02	0	0
1454922	2.301000e+00	5.177620e+01	-7.648716e+01	0	0
1456875	2.301000e+00	5.699609e+01	2.478361e+00	0	0
1458828	2.301000e+00	6.508226e+01	5.877642e+00	0	0
1460781	2.301000e+00	6.439163e+01	-1.228410e+00	0	0
1462734	2.301000e+00	8.662441e+01	1.669703e+02	0	0
1464688	2.301000e+00	1.042793e+02	1.129073e+02	0	0
1466641	2.301000e+00	1.191570e+02	8.063466e-01	0	0
1468594	2.300039e+00	1.274250e+02	4.376766e+00	0	0
1470547	2.300000e+00	1.344112e+02	-1.667039e+02	0	0
1472500	2.300961e+00	1.354226e+02	-1.454038e+02	0	0
1474453	2.300039e+00	1.509163e+02	-9.233973e+01	0	0
1476406	2.300000e+00	1.525914e+02	5.801733e-01	0	0
1478359	2.300000e+00	1.653607e+02	3.825992e+00	0	0
1480313	2.300000e+00	1.764840e+02	-2.727452e+00	0	0
1482266	2.300000e+00	1.991420e+02	1.735829e+02	0	0
1484219	2.300000e+00	2.211023e+02	1.634166e+02	0	0
1486172	2.300000e+00	2.253643e+02	6.161673e+00	0	0
1488125	2.300000e+00	2.494194e+02	7.205799e+00	0	0
1490078	2.300000e+00	2.520004e+02	-1.167383e+02	0	0
1492031	2.300000e+00	2.551250e+02	-1.819768e+02	0	0
1493984	2.300000e+00	2.484878e+02	-1.334265e+02	0	0
1495938	2.300000e+00	2.484480e+02	1.976063e+00	0	0
1497891	2.300000e+00	2.453120e+02	9.143740e+00	0	0
1499844	2.300000e+00	2.597249e+02	6.768361e+00	0	0
1501797	2.300000e+00	2.751225e+02	1.057143e+02	0	0
1503750	2.300000e+00	2.882698e+02	2.006977e+02	0	0
1505703	2.300000e+00	2.922130e+02	3.816252e+00	0	0
1507656	2.300000e+00	2.914509e+02	-4.748919e+00	0	0
1509609	2.300000e+00	2.970197e+02	-4.844703e+01	0	0
1511563	2.300000e+00	3.002744e+02	-2.015445e+02	0	0
1513516	2.300000e+00	2.963479e+02	-1.100359e+02	0	0
1515469	2.300000e+00	2.867422e+02	-1.947702e+01	0	0
1517422	2.300000e+00	2.721288e+02	-1.636954e+01	0	0
1519375	2.300000e+00	2.574422e+02	-1.523721e+01	0	0
1521328	2.300000e+00	2.388703e+02	8.628070e+01	0	0
1523281	2.300000e+00	2.315421e+02	1.754235e+02	0	0
1525234	2.300000e+00	2.114399e+02	6.831584e+01	0	0
1527188	2.299037e+00	1.989261e+02	2.619583e+00	0	0
1529141	2.299000e+00	1.791032e+02	-3.306786e+01	0	0
1531094	2.299963e+00	1.530254e+02	-1.632849e+02	0	0
1533047	2.299037e+00	1.307079e+02	-1.319616e+02	0	0
1535000	2.299000e+00	8.547559e+01	-8.001746e+01	0	0
1536953	2.299000e+00	6.705723e+01	1.438529e+00	0	0
1538906	2.299000e+00	4.456161e+01	1.365365e+00	0	0
1540859	2.299000e+00	2.681731e+01	4.266211e+00	0	0
1542813	2.299000e+00	1.035747e+01	1.728368e+02	0	0
1544766	2.299000e+00	-4.173721e+00	1.087831e+02	0	0
1546719	2.299000e+00	-1.291294e+01	4.052562e+00	0	0
1548672	2.299000e+00	-5.378871e+01	4.810965e+00	0	0
1550625	2.299000e+00	-7.232738e+01	-1.720283e+02	0	0
1552578	2.299000e+00	-1.092689e+02	-1.512453e+02	0	0
1554531	2.299000e+00	-1.181080e+02	-8.836139e+01	0	0
1556484	2.299000e+00	-1.382997e+02	-3.405936e+00	0	0
1558438	2.299000e+00	-1.502596e+02	5.030018e-01	0	0
1560391	2.299000e+00	-1.504856e+02	-4.242251e+00	0	0
1562344	2.299000e+00	-1.640127e+02	1.732614e+02	0	0
1564297	2.299000e+00	-1.564975e+02	1.502568e+02	0	0
1566250	2.299000e+00	-1.585777e+02	5.973861e+00	0	0
1568203	2.299000e+00	-1.600707e+02	5.104718e+00	0	0
1570156	2.299000e+00	-1.837526e+02	-1.388648e+02	0	0
1572109	2.299000e+00	-1.933385e+02	-1.785849e+02	0	0
1574063	2.299000e+00	-2.023617e+02	-1.482675e+02	0	0
1576016	2.299000e+00	-2.106482e+02	-1.996208e+00	0	0
1577969	2.299000e+00	-2.168850e+02	8.445894e+00	0	0
1579922	2.299000e+00	-2.218445e+02	3.352307e+00	0	0
1581875	2.299000e+00	-2.233418e+02	1.187937e+02	0	0
1583828	2.299000e+00	-2.142419e+02	1.909772e+02	0	0
1585781	2.299000e+00	-2.089259e+02	4.041513e+00	0	0
1587734	2.298036e+00	-2.022080e+02	-2.348273e+00	0	0
1589688	2.298965e+00	-1.989358e+02	-4.085513e+01	0	0
1591641	2.298035e+00	-2.137819e+02	-1.961951e+02	0	0
1593594	2.298000e+00	-2.176641e+02	-1.141208e+02	0	0
1595547	2.298000e+00	-2.202106e+02	-1.419988e+01	0	0
1597500	2.298000e+00	-2.214830e+02	-1.097980e+01	0	0
1599453	2.298000e+00	-2.318672e+02	-1.099609e+01	0	0
1601406	2.298000e+00	-2.313218e+02	8.727711e+01	0	0
1603359	2.298000e+00	-2.239096e+02	1.764657e+02	0	0
1605313	2.298000e+00	-2.308448e+02	6.664511e+01	0	0
1607266	2.298000e+00	-2.148073e+02	-4.852651e+00	0	0
1609219	2.298000e+00	-2.155085e+02	-3.807540e+01	0	0
1611172	2.298000e+00	-2.156717e+02	-1.763026e+02	0	0
1613125	2.298000e+00	-2.305866e+02	-1.229330e+02	0	0
1615078	2.298000e+00	-2.267253e+02	-6.673709e+01	0	0
1617031	2.298000e+00	-2.272814e+02	1.077853e+00	0	0
1618984	2.298000e+00	-2.313896e+02	2.970933e+00	0	0
1620938	2.298000e+00	-2.332462e+02	1.446851e+01	0	0
1622891	2.298000e+00	-2.191659e+02	1.719287e+02	0	0
1624844	2.298000e+00	-2.102298e+02	1.048524e+02	0	0
1626797	2.298000e+00	-1.985196e+02	-1.733461e-01	0	0
1628750	2.298000e+00	-2.039921e+02	-4.046754e+00	0	0
1630703	2.298000e+00	-2.019000e+02	-1.699065e+02	0	0
1632656	2.298000e+00	-2.164025e+02	-1.458927e+02	0	0
1634609	2.298000e+00	-2.167139e+02	-8.565766e+01	0	0
1636563	2.298000e+00	-2.093796e+02	8.950962e-01	0	0
1638516	2.298000e+00	-2.187242e+02	4.661690e+00	0	0
1640469	2.298000e+00	-2.125119e+02	-2.125340e-01	0	0
1642422	2.298000e+00	-2.090300e+02	1.725523e+02	0	0
1644375	2.298000e+00	-1.993979e+02	1.501111e+02	0	0
1646328	2.298000e+00	-2.053816e+02	3.889133e+00	0	0
1648281	2.298000e+00	-1.950640e+02	3.492736e+00	0	0
1650234	2.298000e+00	-1.984169e+02	-1.605285e+02	0	0
1652188	2.298000e+00	-2.076754e+02	-1.777839e+02	0	0
1654141	2.298000e+00	-2.113495e+02	-1.307918e+02	0	0
1656094	2.298000e+00	-1.868510e+02	-2.722963e+00	0	0
1658047	2.297033e+00	-2.097486e+02	1.334801e+00	0	0
1660000	2.297000e+00	-2.022337e+02	-3.946035e+00	0	0
1661953	2.297000e+00	-2.121464e+02	1.517975e+02	0	0
1663906	2.297000e+00	-2.120595e+02	1.829853e+02	0	0
1665859	2.297000e+00	-2.002829e+02	8.245788e-01	0	0
1667813	2.297000e+00	-2.003995e+02	-4.833083e+00	0	0
1669766	2.297000e+00	-2.012331e+02	-5.243533e+01	0	0
1671719	2.297000e+00	-2.013227e+02	-1.873623e+02	0	0
1673672	2.297000e+00	-1.975929e+02	-1.232592e+02	0	0
1675625	2.297000e+00	-1.979769e+02	-8.910615e+00	0	0
1677578	2.297000e+00	-1.993517e+02	-4.234169e+00	0	0
1679531	2.297000e+00	-2.033785e+02	-5.900137e+00	0	0
1681484	2.297000e+00	-1.902971e+02	8.760824e+01	0	0
1683438	2.297000e+00	-1.901435e+02	1.736239e+02	0	0
1685391	2.297000e+00	-1.842498e+02	4.818074e+01	0	0
1687344	2.297000e+00	-1.804491e+02	1.738661e+00	0	0
1689297	2.297000e+00	-1.776567e+02	-4.560968e+01	0	0
1691250	2.297000e+00	-1.679443e+02	-1.697841e+02	0	0
1693203	2.297000e+00	-1.916545e+02	-1.370100e+02	0	0
1695156	2.297000e+00	-2.070837e+02	-7.808269e+01	0	0
1697109	2.297000e+00	-2.012689e+02	-2.536060e+00	0	0
1699063	2.297000e+00	-2.146170e+02	-5.353466e-01	0	0
1701016	2.297000e+00	-2.088470e+02	2.603658e+01	0	0
1702969	2.297000e+00	-1.998720e+02	1.691149e+02	0	0
1704922	2.297000e+00	-1.860053e+02	9.868184e+01	0	0
1706875	2.297000e+00	-1.666952e+02	-1.545305e+00	0	0
1708828	2.297000e+00	-1.701932e+02	2.089261e+00	0	0
1710781	2.297000e+00	-1.795165e+02	-1.687623e+02	0	0
1712734	2.297000e+00	-1.871648e+02	-1.541513e+02	0	0
1714688	2.297000e+00	-1.945246e+02	-8.951327e+01	0	0
1716641	2.297000e+00	-1.965792e+02	1.979187e+00	0	0
1718594	2.297000e+00	-2.018009e+02	5.494232e+00	0	0
1720547	2.297000e+00	-2.035894e+02	5.632374e-01	0	0
1722500	2.297000e+00	-1.970772e+02	1.805888e+02	0	0
1724453	2.297000e+00	-1.916356e+02	1.261919e+02	0	0
1726406	2.297000e+00	-1.891240e+02	5.113397e+00	0	0
1728359	2.297000e+00	-1.782210e+02	8.613264e+00	0	0
1730313	2.297000e+00	-1.876665e+02	-1.729876e+02	0	0
1732266	2.297000e+00	-1.960884e+02	-1.734273e+02	0	0
1734219	2.297000e+00	-1.962743e+02	-1.305216e+02	0	0
1736172	2.297000e+00	-1.998118e+02	3.245831e+00	0	0
1738125	2.297000e+00	-2.099391e+02	5.189064e+00	0	0
1740078	2.297000e+00	-2.004995e+02	-1.056601e+00	0	0
1742031	2.297000e+00	-1.959956e+02	1.345773e+02	0	0
1743984	2.297000e+00	-1.893267e+02	1.910942e+02	0	0
1745938	2.297000e+00	-1.893214e+02	2.568508e+00	0	0
1747891	2.297000e+00	-1.760647e+02	-1.355942e+00	0	0
1749844	2.297000e+00	-1.831234e+02	-7.556683e+01	0	0
1751797	2.297000e+00	-1.922007e+02	-1.888799e+02	0	0
1753750	2.297000e+00	-2.010095e+02	-1.102385e+02	0	0
1755703	2.297000e+00	-2.040890e+02	-9.649778e+00	0	0
1757656	2.297000e+00	-2.093628e+02	-7.865832e+00	0	0
1759609	2.297000e+00	-2.104812e+02	-8.688385e+00	0	0
1761563	2.297000e+00	-1.992195e+02	8.802990e+01	0	0
1763516	2.297000e+00	-1.968524e+02	1.742700e+02	0	0
1765469	2.297000e+00	-1.868732e+02	5.233304e+01	0	0
1767422	2.296030e+00	-1.896936e+02	-5.262032e+00	0	0
1769375	2.296970e+00	-1.832817e+02	-4.599540e+01	0	0
1771328	2.297000e+00	-1.935442e+02	-1.764857e+02	0	0
1773281	2.297000e+00	-1.944375e+02	-1.123608e+02	0	0
1775234	2.297000e+00	-1.985997e+02	-5.554215e+01	0	0
1777188	2.297000e+00	-1.869663e+02	-2.075371e+00	0	0
1779141	2.297000e+00	-2.058206e+02	-6.243244e-01	0	0
1781094	2.297000e+00	-2.159991e+02	2.422959e+01	0	0
1783047	2.297000e+00	-2.092247e+02	1.733113e+02	0	0
1785000	2.297000e+00	-2.042632e+02	1.042411e+02	0	0
1786953	2.296030e+00	-1.920428e+02	-5.841861e-01	0	0
1788906	2.296970e+00	-1.877639e+02	1.841242e+00	0	0
1790859	2.296030e+00	-1.754031e+02	-1.751239e+02	0	0
1792813	2.296000e+00	-1.726727e+02	-1.388527e+02	0	0
1794766	2.296971e+00	-1.692137e+02	-7.685415e+01	0	0
1796719	2.296029e+00	-1.655004e+02	-1.232710e+00	0	0
1798672	2.296971e+00	-1.455736e+02	1.935615e+00	0	0
1800625	2.297000e+00	-1.110162e+02	-2.079817e+00	0	0
1802578	2.297000e+00	-1.018363e+02	1.737286e+02	0	0
1804531	2.297000e+00	-8.335929e+01	1.320856e+02	0	0
1806484	2.296029e+00	-6.427231e+01	3.045722e+00	0	0
1808438	2.296000e+00	-6.522660e+01	4.528050e+00	0	0
1810391	2.296000e+00	-6.016332e+01	-1.707531e+02	0	0
1812344	2.296971e+00	-5.544448e+01	-1.730204e+02	0	0
1814297	2.297000e+00	-4.823849e+01	-1.186131e+02	0	0
1816250	2.297000e+00	-4.557730e+01	-7.540061e-01	0	0
1818203	2.297000e+00	-3.100335e+01	1.705960e+00	0	0
1820156	2.297000e+00	-3.900471e+01	-2.652674e+00	0	0
1822109	2.297000e+00	-3.739106e+01	1.441438e+02	0	0
1824063	2.297000e+00	-1.905638e+01	1.837528e+02	0	0
1826016	2.296028e+00	-1.047383e+01	2.162975e+00	0	0
1827969	2.296972e+00	1.287360e+01	-1.174929e+00	0	0
1829922	2.297000e+00	9.568827e+00	-7.223222e+01	0	0
1831875	2.297000e+00	5.717840e+00	-1.822883e+02	0	0
1833828	2.297000e+00	2.102627e+01	-1.164659e+02	0	0
1835781	2.297000e+00	4.365216e+01	-2.717764e+00	0	0
1837734	2.297000e+00	4.993073e+01	-1.101302e+00	0	0
1839688	2.297000e+00	4.208002e+01	-3.582879e+00	0	0
1841641	2.297000e+00	4.422558e+01	8.685417e+01	0	0
1843594	2.297000e+00	4.267365e+01	1.760112e+02	0	0
1845547	2.297000e+00	5.100521e+01	3.726454e+01	0	0
1847500	2.297000e+00	4.614364e+01	-2.433006e+00	0	0
1849453	2.297000e+00	3.397876e+01	-4.699517e+01	0	0
1851406	2.297000e+00	1.915391e+01	-1.740581e+02	0	0
1853359	2.297000e+00	1.791151e+01	-9.865776e+01	0	0
1855313	2.297000e+00	1.492354e+01	-3.830063e+01	0	0
1857266	2.297000e+00	-5.036535e+00	-1.283845e+00	0	0
1859219	2.297000e+00	-1.606082e+01	-1.300055e+00	0	0
1861172	2.297000e+00	-2.579612e+01	6.035339e+01	0	0
1863125	2.297000e+00	-4.803341e+01	1.686840e+02	0	0
1865078	2.297000e+00	-6.391373e+01	9.218310e+01	0	0
1867031	2.297000e+00	-7.659141e+01	-3.601459e-01	0	0
1868984	2.297000e+00	-9.967874e+01	-6.730487e+00	0	0
1870938	2.297000e+00	-1.101199e+02	-1.680716e+02	0	0
1872891	2.297000e+00	-1.441497e+02	-1.399709e+02	0	0
1874844	2.297000e+00	-1.685425e+02	-9.125324e+01	0	0
1876797	2.297000e+00	-1.724767e+02	-7.271241e-01	0	0
1878750	2.297000e+00	-1.921851e+02	1.962295e+00	0	0
1880703	2.297000e+00	-1.970940e+02	-2.572454e+00	0	0
1882656	2.297000e+00	-2.046654e+02	1.724889e+02	0	0
1884609	2.297000e+00	-2.147622e+02	1.334675e+02	0	0
1886563	2.297000e+00	-2.030533e+02	2.684905e-01	0	0
1888516	2.297000e+00	-2.144076e+02	1.654982e+00	0	0
1890469	2.297000e+00	-2.098809e+02	-1.774434e+02	0	0
1892422	2.297000e+00	-2.235460e+02	-1.575524e+02	0	0
1894375	2.297000e+00	-2.365685e+02	-9.283414e+01	0	0
1896328	2.297000e+00	-2.389134e+02	-2.284440e+00	0	0
1898281	2.297000e+00	-2.440300e+02	2.642939e-01	0	0
1900234	2.297000e+00	-2.402558e+02	-3.235027e+00	0	0
1902188	2.297000e+00	-2.431879e+02	1.633210e+02	0	0
1904141	2.297000e+00	-2.310185e+02	1.874457e+02	0	0
1906094	2.297000e+00	-2.350138e+02	2.235234e+00	0	0
1908047	2.297000e+00	-2.351041e+02	-1.636232e+00	0	0
1910000	2.297000e+00	-2.405089e+02	-6.303699e+01	0	0
1911953	2.297000e+00	-2.545026e+02	-1.865489e+02	0	0
1913906	2.297000e+00	-2.584905e+02	-1.060022e+02	0	0
1915859	2.297974e+00	-2.542140e+02	-3.637799e+00	0	0
1917813	2.298000e+00	-2.537041e+02	-1.630013e+00	0	0
1919766	2.298000e+00	-2.653714e+02	-2.898256e+00	0	0
1921719	2.298000e+00	-2.611084e+02	8.821531e+01	0	0
1923672	2.298000e+00	-2.523188e+02	1.829364e+02	0	0
1925625	2.298000e+00	-2.562727e+02	4.392957e+01	0	0
1927578	2.298000e+00	-2.471958e+02	-2.860199e-01	0	0
1929531	2.298000e+00	-2.474798e+02	-5.489443e+01	0	0
1931484	2.298000e+00	-2.524399e+02	-1.792080e+02	0	0
1933438	2.298000e+00	-2.674473e+02	-1.124917e+02	0	0
1935391	2.298000e+00	-2.681869e+02	-4.564039e+01	0	0
1937344	2.298000e+00	-2.614962e+02	-9.194033e-01	0	0
1939297	2.298000e+00	-2.613004e+02	-9.653981e-01	0	0
1941250	2.298000e+00	-2.588574e+02	6.713196e+01	0	0
1943203	2.298000e+00	-2.541888e+02	1.732584e+02	0	0
1945156	2.298000e+00	-2.487709e+02	9.840135e+01	0	0
1947109	2.298000e+00	-2.392622e+02	3.102054e-01	0	0
1949063	2.298000e+00	-2.331150e+02	-1.738048e+01	0	0
1951016	2.298000e+00	-2.525829e+02	-1.716028e+02	0	0
1952969	2.298000e+00	-2.788305e+02	-1.501139e+02	0	0
1954922	2.298000e+00	-3.134783e+02	-9.035874e+01	0	0
1956875	2.298000e+00	-3.349083e+02	-1.858535e+00	0	0
1958828	2.298000e+00	-3.330208e+02	1.346418e+00	0	0
1960781	2.298975e+00	-3.029740e+02	-1.029620e+00	0	0
1962734	2.298025e+00	-2.251042e+02	1.750766e+02	0	0
1964688	2.298000e+00	-1.326830e+02	1.165733e+02	0	0
1966641	2.298000e+00	-1.774484e+01	3.136815e+00	0	0
1968594	2.298000e+00	7.314003e+01	3.754259e+00	0	0
1970547	2.298976e+00	1.780378e+02	-1.731341e+02	0	0
1972500	2.299000e+00	3.752314e+02	-1.566640e+02	0	0
1974453	2.299000e+00	6.656642e+02	-1.073084e+02	0	0
1976406	2.299000e+00	8.893245e+02	-2.000503e+00	0	0
1978359	2.299000e+00	1.139592e+03	7.791902e-01	0	0
1980313	2.299000e+00	1.402257e+03	-3.590383e+00	0	0
1982266	2.299000e+00	1.627076e+03	1.700204e+02	0	0
1984219	2.299000e+00	1.767203e+03	1.759818e+02	0	0
1986172	2.299000e+00	1.709755e+03	-5.203515e+00	0	0
1988125	2.299000e+00	1.596561e+03	-6.739523e+00	0	0
1990078	2.299000e+00	1.284195e+03	-7.765962e+01	0	0
1992031	2.299000e+00	9.575958e+02	-1.812983e+02	0	0
1993984	2.299000e+00	7.303608e+02	-1.220372e+02	0	0
1995938	2.299000e+00	5.359112e+02	-4.889590e+00	0	0
1997891	2.299000e+00	3.634763e+02	2.972092e-01	0	0
1999844	2.299000e+00	4.511780e+01	2.207697e+00	0	0
2001797	2.299977e+00	-2.465306e+02	9.354010e+01	0	0
2003750	2.300000e+00	-3.559107e+02	1.928119e+02	0	0
2005703	2.300000e+00	-4.055738e+02	9.991450e+00	0	0
2007656	2.300000e+00	-4.000608e+02	2.816454e+00	0	0
2009609	2.300000e+00	-3.697095e+02	-7.031556e+01	0	0
2011563	2.300000e+00	-3.378999e+02	-1.811803e+02	0	0
2013516	2.300000e+00	-3.225929e+02	-9.959137e+01	0	0
2015469	2.300000e+00	-2.813670e+02	-2.919282e+01	0	0
2017422	2.300000e+00	-2.566570e+02	-4.167681e+00	0	0
2019375	2.300000e+00	-2.190522e+02	-4.960369e+00	0	0
2021328	2.300000e+00	-1.970537e+02	6.335337e+01	0	0
2023281	2.300000e+00	-1.779686e+02	1.700095e+02	0	0
2025234	2.300000e+00	-1.789376e+02	9.498013e+01	0	0
2027188	2.300000e+00	-1.827848e+02	3.168215e-01	0	0
2029141	2.300000e+00	-1.705760e+02	-1.811410e+01	0	0
2031094	2.300978e+00	-1.788006e+02	-1.666918e+02	0	0
2033047	2.301000e+00	-1.832243e+02	-1.401411e+02	0	0
2035000	2.301000e+00	-1.914437e+02	-7.451003e+01	0	0
2036953	2.301000e+00	-2.041234e+02	-1.468413e+00	0	0
2038906	2.301000e+00	-2.089250e+02	4.330568e-01	0	0
2040859	2.301000e+00	-2.059774e+02	-2.884786e+00	0	0
2042813	2.301000e+00	-1.934847e+02	1.683201e+02	0	0
2044766	2.301000e+00	-1.701962e+02	1.219222e+02	0	0
2046719	2.301000e+00	-1.747867e+02	2.031803e-01	0	0
2048672	2.301000e+00	-1.715853e+02	1.554541e+00	0	0
2050625	2.301000e+00	-1.814891e+02	-1.739778e+02	0	0
2052578	2.301000e+00	-1.687390e+02	-1.514364e+02	0	0
2054531	2.301978e+00	-1.771825e+02	-1.058202e+02	0	0
2056484	2.302000e+00	-1.766059e+02	-2.074963e+00	0	0
2058438	2.302000e+00	-1.787918e+02	4.453158e-01	0	0
2060391	2.302000e+00	-1.800901e+02	-2.936694e+00	0	0
2062344	2.302000e+00	-1.821722e+02	1.813734e+02	0	0
2064297	2.302000e+00	-1.766228e+02	1.683440e+02	0	0
2066250	2.302000e+00	-1.694392e+02	1.223937e+00	0	0
2068203	2.302000e+00	-1.620607e+02	-6.261808e-02	0	0
2070156	2.302000e+00	-1.522697e+02	-1.036705e+02	0	0
2072109	2.302000e+00	-1.624061e+02	-1.885327e+02	0	0
2074063	2.302000e+00	-1.699172e+02	-1.152853e+02	0	0
2076016	2.302979e+00	-1.701215e+02	-1.837670e+00	0	0
2077969	2.303000e+00	-1.817029e+02	-3.854691e-02	0	0
2079922	2.303000e+00	-1.597867e+02	-1.510407e+00	0	0
2081875	2.303000e+00	-1.586611e+02	9.768498e+01	0	0
2083828	2.303000e+00	-1.555985e+02	1.899030e+02	0	0
2085781	2.303000e+00	-1.477083e+02	2.159310e+01	0	0
2087734	2.303000e+00	-1.336214e+02	-2.025473e-01	0	0
2089688	2.303000e+00	-1.312454e+02	-5.550641e+01	0	0
2091641	2.303000e+00	-1.339693e+02	-1.810932e+02	0	0
2093594	2.303000e+00	-1.248923e+02	-1.020778e+02	0	0
2095547	2.303000e+00	-1.357051e+02	-2.115532e+01	0	0
2097500	2.303980e+00	-1.445499e+02	-6.687784e+00	0	0
2099453	2.304000e+00	-1.379083e+02	-7.414875e+00	0	0
2101406	2.304000e+00	-1.434670e+02	8.582374e+01	0	0
2103359	2.304000e+00	-1.303488e+02	1.657577e+02	0	0
2105313	2.304000e+00	-1.062082e+02	8.703600e+01	0	0
2107266	2.304000e+00	-1.022025e+02	1.453490e-01	0	0
2109219	2.304000e+00	-8.015319e+01	-3.451538e+01	0	0
2111172	2.304000e+00	-9.752284e+01	-1.566671e+02	0	0
2113125	2.304000e+00	-1.017617e+02	-1.498254e+02	0	0
2115078	2.304000e+00	-1.120016e+02	-7.023456e+01	0	0
2117031	2.304980e+00	-1.147776e+02	1.627157e+00	0	0
2118984	2.305000e+00	-1.077398e+02	6.750150e-02	0	0
2120938	2.305000e+00	-8.995741e+01	-2.820222e+00	0	0
2122891	2.305000e+00	-8.365817e+01	1.652424e+02	0	0
2124844	2.305000e+00	-6.814252e+01	1.190907e+02	0	0
2126797	2.305000e+00	-5.968182e+01	-9.303274e-01	0	0
2128750	2.305000e+00	-6.675874e+01	-2.032380e+00	0	0
2130703	2.305000e+00	-7.986191e+01	-1.758615e+02	0	0
2132656	2.305981e+00	-7.553561e+01	-1.408718e+02	0	0
2134609	2.306000e+00	-8.270149e+01	-9.149922e+01	0	0
2136563	2.306000e+00	-8.563352e+01	-6.379803e+00	0	0
2138516	2.306000e+00	-7.166172e+01	-4.518388e+00	0	0
2140469	2.306000e+00	-7.217757e+01	-7.242112e+00	0	0
2142422	2.306000e+00	-6.429712e+01	1.741365e+02	0	0
2144375	2.306000e+00	-5.306590e+01	1.801972e+02	0	0
2146328	2.306000e+00	-3.991404e+01	-1.426504e+00	0	0
2148281	2.306000e+00	-2.922159e+01	7.106671e-02	0	0
2150234	2.306981e+00	-2.849761e+01	-1.176239e+02	0	0
2152188	2.307000e+00	-2.478293e+01	-1.849482e+02	0	0
2154141	2.307000e+00	-2.227132e+01	-1.364400e+02	0	0
2156094	2.307000e+00	-2.231950e+01	-5.090189e+00	0	0
2158047	2.307000e+00	-2.420905e+01	3.822360e+00	0	0
2160000	2.307000e+00	-2.283685e+01	6.293970e+00	0	0
2161953	2.307000e+00	-2.825750e+00	9.821866e+01	0	0
2163906	2.307000e+00	2.093194e+00	2.010243e+02	0	0
2165859	2.307982e+00	1.028045e+01	1.185072e+01	0	0
2167813	2.308000e+00	1.123802e+01	5.008118e+00	0	0
2169766	2.308000e+00	3.322531e+01	-6.413189e+01	0	0
2171719	2.308000e+00	2.581238e+01	-1.863681e+02	0	0
2173672	2.308000e+00	2.048531e+01	-1.067294e+02	0	0
2175625	2.308000e+00	2.719924e+01	-1.527129e+01	0	0
2177578	2.308000e+00	3.438115e+01	-1.259793e+01	0	0
2179531	2.308982e+00	5.005431e+01	-1.650464e+01	0	0
2181484	2.309000e+00	6.361356e+01	7.559455e+01	0	0
2183438	2.309000e+00	8.556260e+01	1.633882e+02	0	0
2185391	2.309000e+00	1.005944e+02	8.613081e+01	0	0
2187344	2.309000e+00	1.133395e+02	-4.550000e+00	0	0
2189297	2.309000e+00	1.117862e+02	-1.137324e+01	0	0
2191250	2.309000e+00	1.176747e+02	-1.766014e+02	0	0
2193203	2.309983e+00	1.227355e+02	-1.214667e+02	0	0
2195156	2.310000e+00	1.352819e+02	-7.029825e+01	0	0
2197109	2.310000e+00	1.447732e+02	5.128796e+00	0	0
2199063	2.310000e+00	1.461993e+02	7.642657e+00	0	0
2201016	2.310000e+00	1.635113e+02	4.440077e+00	0	0
2202969	2.310000e+00	1.862766e+02	1.797868e+02	0	0
2204922	2.310983e+00	2.031028e+02	1.090643e+02	0	0
2206875	2.311000e+00	2.224784e+02	-4.547064e-01	0	0
2208828	2.311000e+00	2.249724e+02	8.745819e-01	0	0
2210781	2.311000e+00	2.382371e+02	-1.764607e+02	0	0
2212734	2.311000e+00	2.413242e+02	-1.496182e+02	0	0
2214688	2.311000e+00	2.568124e+02	-9.259445e+01	0	0
2216641	2.311000e+00	2.666069e+02	1.122759e+00	0	0
2218594	2.311984e+00	2.807920e+02	1.440279e+00	0	0
2220547	2.312000e+00	2.976477e+02	-1.977718e+00	0	0
2222500	2.312000e+00	3.100862e+02	1.760868e+02	0	0
2224453	2.312000e+00	3.256042e+02	1.608299e+02	0	0
2226406	2.312000e+00	3.389115e+02	2.664455e+00	0	0
2228359	2.312000e+00	3.492577e+02	1.469510e+00	0	0
2230313	2.312000e+00	3.551471e+02	-1.257788e+02	0	0
2232266	2.312984e+00	3.528133e+02	-1.815759e+02	0	0
2234219	2.313000e+00	3.613685e+02	-1.362478e+02	0	0
2236172	2.313000e+00	3.794766e+02	-5.808823e-01	0	0
2238125	2.313000e+00	3.640395e+02	2.730947e+00	0	0
2240078	2.313000e+00	3.737070e+02	1.739194e+00	0	0
2242031	2.313000e+00	3.873294e+02	1.127106e+02	0	0
2243984	2.313984e+00	4.012162e+02	1.864024e+02	0	0
2245938	2.314000e+00	3.978674e+02	1.932658e+00	0	0
2247891	2.314000e+00	4.022462e+02	-1.572296e+00	0	0
2249844	2.314000e+00	3.984144e+02	-5.001185e+01	0	0
2251797	2.314000e+00	3.743111e+02	-1.859780e+02	0	0
2253750	2.314000e+00	3.593655e+02	-1.147433e+02	0	0
2255703	2.314985e+00	3.387995e+02	-1.666135e+01	0	0
2257656	2.315000e+00	3.142939e+02	-6.983557e+00	0	0
2259609	2.315000e+00	2.842557e+02	-6.196183e+00	0	0
2261563	2.315000e+00	2.630898e+02	8.519943e+01	0	0
2263516	2.315000e+00	2.476304e+02	1.737477e+02	0	0
2265469	2.315000e+00	2.231331e+02	6.795428e+01	0	0
2267422	2.315985e+00	2.022105e+02	-1.472841e+00	0	0
2269375	2.316000e+00	1.817369e+02	-3.189607e+01	0	0
2271328	2.316000e+00	1.593907e+02	-1.703773e+02	0	0
2273281	2.316000e+00	1.139182e+02	-1.188753e+02	0	0
2275234	2.316985e+00	8.512062e+01	-8.027065e+01	0	0
2277188	2.317000e+00	5.532848e+01	3.932423e+00	0	0
2279141	2.317000e+00	3.695070e+01	5.336070e+00	0	0
2281094	2.317000e+00	1.396511e+01	2.519494e+00	0	0
2283047	2.317000e+00	-3.968338e+00	1.745479e+02	0	0
2285000	2.317000e+00	-1.155845e+01	1.028291e+02	0	0
2286953	2.317000e+00	-2.618114e+01	1.604617e+00	0	0
2288906	2.317986e+00	-3.903584e+01	-3.516331e+00	0	0
2290859	2.318000e+00	-5.129915e+01	-1.705180e+02	0	0
2292813	2.318000e+00	-7.243867e+01	-1.553356e+02	0	0
2294766	2.318000e+00	-9.497957e+01	-8.885552e+01	0	0
2296719	2.318986e+00	-1.130915e+02	1.657865e+00	0	0
2298672	2.319000e+00	-1.302214e+02	3.776166e+00	0	0
2300625	2.319000e+00	-1.373423e+02	2.473762e+00	0	0
2302578	2.319000e+00	-1.387161e+02	1.776653e+02	0	0
2304531	2.319000e+00	-1.302228e+02	1.672029e+02	0	0
2306484	2.319000e+00	-1.284962e+02	3.526913e+00	0	0
2308438	2.319987e+00	-1.243348e+02	5.747773e+00	0	0
2310391	2.320000e+00	-1.304483e+02	-1.395380e+02	0	0
2312344	2.320000e+00	-1.465714e+02	-1.806235e+02	0	0
2314297	2.320000e+00	-1.454090e+02	-1.263540e+02	0	0
2316250	2.320000e+00	-1.678103e+02	9.628731e-01	0	0
2318203	2.320987e+00	-1.864403e+02	4.836059e+00	0	0
2320156	2.321000e+00	-1.774348e+02	3.725686e+00	0	0
2322109	2.321000e+00	-1.756035e+02	1.220723e+02	0	0
2324063	2.321000e+00	-1.660662e+02	1.969262e+02	0	0
2326016	2.321000e+00	-1.738480e+02	1.376597e+00	0	0
2327969	2.321000e+00	-1.739506e+02	-5.384267e-01	0	0
2329922	2.321987e+00	-1.603524e+02	-6.708730e+01	0	0
2331875	2.322000e+00	-1.648159e+02	-1.923921e+02	0	0
2333828	2.322000e+00	-1.770996e+02	-1.069715e+02	0	0
2335781	2.322987e+00	-1.679162e+02	-1.026241e+01	0	0
2337734	2.323000e+00	-1.763578e+02	-9.552812e+00	0	0
2339688	2.323000e+00	-1.756338e+02	-7.939277e+00	0	0
2341641	2.323000e+00	-1.880900e+02	7.852557e+01	0	0
2343594	2.323000e+00	-1.787650e+02	1.735361e+02	0	0
2345547	2.323000e+00	-1.757463e+02	6.768263e+01	0	0
2347500	2.323988e+00	-1.673178e+02	-1.191371e+00	0	0
2349453	2.324000e+00	-1.768495e+02	-3.779196e+01	0	0
2351406	2.324000e+00	-1.874497e+02	-1.698226e+02	0	0
2353359	2.324000e+00	-1.825049e+02	-1.368349e+02	0	0
2355313	2.324989e+00	-1.846530e+02	-7.052720e+01	0	0
2357266	2.325000e+00	-1.870664e+02	1.358241e+00	0	0
2359219	2.325000e+00	-2.028222e+02	2.504786e+00	0	0
2361172	2.325000e+00	-1.948642e+02	9.016221e+00	0	0
2363125	2.325000e+00	-1.854623e+02	1.677765e+02	0	0
2365078	2.325989e+00	-1.762401e+02	1.019426e+02	0	0
2367031	2.326000e+00	-1.740386e+02	1.508820e+00	0	0
2368984	2.326000e+00	-1.825625e+02	2.447897e+00	0	0
2370938	2.326000e+00	-1.716196e+02	-1.651722e+02	0	0
2372891	2.326000e+00	-1.842780e+02	-1.572800e+02	0	0
2374844	2.326989e+00	-1.808313e+02	-1.090782e+02	0	0
2376797	2.327000e+00	-1.736413e+02	1.551442e+00	0	0
2378750	2.327000e+00	-1.931319e+02	3.194732e+00	0	0
2380703	2.327000e+00	-1.908031e+02	1.512796e+00	0	0
2382656	2.327989e+00	-1.816763e+02	1.750537e+02	0	0
2384609	2.328000e+00	-1.833315e+02	1.403850e+02	0	0
2386563	2.328000e+00	-1.797778e+02	3.453861e+00	0	0
2388516	2.328000e+00	-1.567042e+02	3.572861e+00	0	0
2390469	2.328990e+00	-1.626413e+02	-1.446210e+02	0	0
2392422	2.329000e+00	-1.549319e+02	-1.771807e+02	0	0
2394375	2.329000e+00	-1.556695e+02	-1.226313e+02	0	0
2396328	2.329000e+00	-1.599554e+02	-3.215245e+00	0	0
2398281	2.329000e+00	-1.696150e+02	8.023801e+00	0	0
2400234	2.329990e+00	-1.764299e+02	7.387560e+00	0	0
2402188	2.330000e+00	-1.792363e+02	1.198834e+02	0	0
2404141	2.330000e+00	-1.723106e+02	1.975738e+02	0	0
2406094	2.330000e+00	-1.584055e+02	5.602398e+00	0	0
2408047	2.330000e+00	-1.502857e+02	2.750705e+00	0	0
2410000	2.330990e+00	-1.480113e+02	-6.826527e+01	0	0
2411953	2.331000e+00	-1.644763e+02	-1.870536e+02	0	0
2413906	2.331000e+00	-1.678328e+02	-9.938438e+01	0	0
2415859	2.331000e+00	-1.558541e+02	-1.042135e+01	0	0
2417813	2.331991e+00	-1.695163e+02	-1.090150e+01	0	0
2419766	2.332000e+00	-1.731402e+02	-1.001336e+01	0	0
2421719	2.332000e+00	-1.646146e+02	8.464885e+01	0	0
2423672	2.332991e+00	-1.496532e+02	1.713628e+02	0	0
2425625	2.333000e+00	-1.353174e+02	4.667212e+01	0	0
2427578	2.333000e+00	-1.224975e+02	-7.461798e-01	0	0
2429531	2.333000e+00	-1.217796e+02	-4.078559e+01	0	0
2431484	2.333000e+00	-1.435723e+02	-1.632984e+02	0	0
2433438	2.333991e+00	-1.548060e+02	-1.144109e+02	0	0
2435391	2.334000e+00	-1.525200e+02	-6.042914e+01	0	0
2437344	2.334000e+00	-1.590640e+02	5.343515e+00	0	0
2439297	2.334991e+00	-1.513270e+02	3.448814e+00	0	0
2441250	2.335000e+00	-1.595048e+02	2.294957e+01	0	0
2443203	2.335000e+00	-1.591559e+02	1.715400e+02	0	0
2445156	2.335000e+00	-1.476353e+02	9.620937e+01	0	0
2447109	2.335000e+00	-1.352060e+02	3.340720e+00	0	0
2449063	2.335992e+00	-1.272972e+02	-1.053469e+01	0	0
2451016	2.336000e+00	-1.242947e+02	-1.651433e+02	0	0
2452969	2.336000e+00	-1.420367e+02	-1.311458e+02	0	0
2454922	2.336992e+00	-1.390610e+02	-8.429089e+01	0	0
2456875	2.337000e+00	-1.432158e+02	2.832062e+00	0	0
2458828	2.337000e+00	-1.466564e+02	3.626091e+00	0	0
2460781	2.337000e+00	-1.532133e+02	2.550448e+00	0	0
2462734	2.337992e+00	-1.532901e+02	1.751167e+02	0	0
2464688	2.338000e+00	-1.426899e+02	1.610990e+02	0	0
2466641	2.338000e+00	-1.421026e+02	7.546027e+00	0	0
2468594	2.338000e+00	-1.288172e+02	6.509708e+00	0	0
2470547	2.338992e+00	-1.425251e+02	-1.645338e+02	0	0
2472500	2.339000e+00	-1.409300e+02	-1.745020e+02	0	0
2474453	2.339000e+00	-1.604335e+02	-1.214641e+02	0	0
2476406	2.339000e+00	-1.589347e+02	7.770600e+00	0	0
2478359	2.339992e+00	-1.691217e+02	8.633342e+00	0	0
2480313	2.340000e+00	-1.667888e+02	5.853823e+00	0	0
2482266	2.340000e+00	-1.561519e+02	1.411594e+02	0	0
2484219	2.340000e+00	-1.459555e+02	1.878292e+02	0	0
2486172	2.340993e+00	-1.505004e+02	-5.416944e-01	0	0
2488125	2.341000e+00	-1.338958e+02	-3.042774e+00	0	0
2490078	2.341000e+00	-1.366988e+02	-6.964805e+01	0	0
2492031	2.341000e+00	-1.328465e+02	-1.998701e+02	0	0
2493984	2.341993e+00	-1.389974e+02	-1.164000e+02	0	0
2495938	2.342000e+00	-1.511277e+02	-1.405904e+01	0	0
2497891	2.342000e+00	-1.598569e+02	-1.024220e+01	0	0
2499844	2.342993e+00	-1.647677e+02	-5.825643e+00	0	0
2501797	2.343000e+00	-1.613047e+02	8.796208e+01	0	0
2503750	2.343000e+00	-1.609284e+02	1.738307e+02	0	0
2505703	2.343000e+00	-1.463848e+02	5.079374e+01	0	0
2507656	2.343993e+00	-1.493460e+02	5.006041e+00	0	0
2509609	2.344000e+00	-1.490744e+02	-4.399659e+01	0	0
2511563	2.344000e+00	-1.441574e+02	-1.648593e+02	0	0
2513516	2.344000e+00	-1.559667e+02	-1.320616e+02	0	0
2515469	2.344994e+00	-1.613113e+02	-6.749063e+01	0	0
2517422	2.345000e+00	-1.698878e+02	9.422842e-01	0	0
2519375	2.345000e+00	-1.617833e+02	1.406827e+00	0	0
2521328	2.345994e+00	-1.568309e+02	3.806221e+01	0	0
2523281	2.346000e+00	-1.485832e+02	1.744645e+02	0	0
2525234	2.346000e+00	-1.436456e+02	1.106411e+02	0	0
2527188	2.346000e+00	-1.584009e+02	2.732876e+00	0	0
2529141	2.346994e+00	-1.435218e+02	-1.129358e+01	0	0
2531094	2.347000e+00	-1.550968e+02	-1.679209e+02	0	0
2533047	2.347000e+00	-1.684339e+02	-1.347052e+02	0	0
2535000	2.347994e+00	-1.710208e+02	-7.654149e+01	0	0
2536953	2.348000e+00	-1.587725e+02	4.168551e+00	0	0
2538906	2.348000e+00	-1.786209e+02	5.686977e+00	0	0
2540859	2.348994e+00	-1.643839e+02	5.134614e+00	0	0
2542813	2.349000e+00	-1.731231e+02	1.771019e+02	0	0
2544766	2.349000e+00	-1.496595e+02	1.519592e+02	0	0
2546719	2.349000e+00	-1.332112e+02	3.319144e+00	0	0
2548672	2.349995e+00	-1.376434e+02	2.419201e+00	0	0
2550625	2.350000e+00	-1.426073e+02	-1.747127e+02	0	0
2552578	2.350000e+00	-1.670819e+02	-1.727218e+02	0	0
2554531	2.350995e+00	-1.560536e+02	-1.082658e+02	0	0
2556484	2.351000e+00	-1.639761e+02	6.583323e+00	0	0
2558438	2.351000e+00	-1.684722e+02	5.965827e+00	0	0
2560391	2.351000e+00	-1.711617e+02	3.017356e+00	0	0
2562344	2.351995e+00	-1.695584e+02	1.503712e+02	0	0
2564297	2.352000e+00	-1.824137e+02	1.879808e+02	0	0
2566250	2.352000e+00	-1.631107e+02	-6.383792e-01	0	0
2568203	2.352000e+00	-1.526704e+02	-2.509187e+00	0	0
2570156	2.352995e+00	-1.596161e+02	-6.516622e+01	0	0
2572109	2.353000e+00	-1.635949e+02	-1.979444e+02	0	0
2574063	2.353000e+00	-1.693024e+02	-1.141056e+02	0	0
2576016	2.353996e+00	-1.652142e+02	-1.196560e+01	0	0
2577969	2.354000e+00	-1.536677e+02	-9.433692e+00	0	0
2579922	2.354000e+00	-1.388066e+02	-6.692206e+00	0	0
2581875	2.354000e+00	-1.286523e+02	9.108368e+01	0	0
2583828	2.354996e+00	-8.211717e+01	1.744471e+02	0	0
2585781	2.355000e+00	-3.903444e+01	4.139602e+01	0	0
2587734	2.355996e+00	-2.533990e+01	-1.251731e+00	0	0
2589688	2.356000e+00	-1.532983e+01	-5.818221e+01	0	0
2591641	2.356000e+00	-1.757838e+01	-1.738245e+02	0	0
2593594	2.356000e+00	-2.400468e+01	-1.288863e+02	0	0
2595547	2.356996e+00	-2.655421e+01	-5.509506e+01	0	0
2597500	2.357000e+00	-2.397026e+01	-2.102271e-01	0	0
2599453	2.357000e+00	-9.336392e+00	-1.198320e-01	0	0
2601406	2.357996e+00	9.402668e+00	4.355778e+01	0	0
2603359	2.358000e+00	2.050018e+01	1.736350e+02	0	0
2605313	2.358000e+00	3.030879e+01	9.696161e+01	0	0
2607266	2.358997e+00	3.626651e+01	-8.905077e-02	0	0
2609219	2.359000e+00	2.909758e+01	-8.230879e+00	0	0
2611172	2.359000e+00	5.365835e+01	-1.731693e+02	0	0
2613125	2.359997e+00	3.271682e+01	-1.438718e+02	0	0
2615078	2.360000e+00	3.237890e+01	-9.264140e+01	0	0
2617031	2.360000e+00	4.287445e+01	4.016950e-01	0	0
2618984	2.360000e+00	5.492280e+01	1.748160e+00	0	0
2620938	2.360998e+00	7.341357e+01	2.590553e+00	0	0
2622891	2.361000e+00	9.570605e+01	1.772880e+02	0	0
2624844	2.361000e+00	1.024034e+02	1.412177e+02	0	0
2626797	2.361998e+00	9.785101e+01	6.736094e+00	0	0
2628750	2.362000e+00	9.209444e+01	7.226541e+00	0	0
2630703	2.362000e+00	9.333841e+01	-1.685582e+02	0	0
2632656	2.362000e+00	7.614459e+01	-1.657700e+02	0	0
2634609	2.362998e+00	5.613253e+01	-1.212246e+02	0	0
2636563	2.363000e+00	6.671895e+01	5.041469e+00	0	0
2638516	2.363998e+00	6.616647e+01	8.140391e+00	0	0
2640469	2.364000e+00	6.730865e+01	6.160249e+00	0	0
2642422	2.364000e+00	3.306298e+01	1.607330e+02	0	0
2644375	2.364998e+00	1.883177e+01	1.903812e+02	0	0
2646328	2.365000e+00	-1.914274e+01	1.814364e+00	0	0
2648281	2.365000e+00	-1.234105e+01	-1.648200e-01	0	0
2650234	2.365000e+00	-2.215274e+01	-9.440406e+01	0	0
2652188	2.365999e+00	-4.966591e+01	-1.884861e+02	0	0
2654141	2.366000e+00	-6.747524e+01	-1.125787e+02	0	0
2656094	2.366000e+00	-8.309138e+01	-5.595140e-01	0	0
2658047	2.366999e+00	-1.118496e+02	-2.396199e+00	0	0
2660000	2.367000e+00	-1.167398e+02	-4.261576e+00	0	0
2661953	2.367000e+00	-1.353713e+02	9.284527e+01	0	0
2663906	2.367999e+00	-1.336537e+02	1.762622e+02	0	0
2665859	2.368000e+00	-1.224590e+02	4.090600e+01	0	0
2667813	2.368000e+00	-1.260500e+02	-7.497090e+00	0	0
2669766	2.368999e+00	-1.301089e+02	-6.050384e+01	0	0
2671719	2.369000e+00	-1.535471e+02	-1.828513e+02	0	0
2673672	2.369000e+00	-1.646779e+02	-1.082848e+02	0	0
2675625	2.369999e+00	-1.714764e+02	-3.489475e+01	0	0
2677578	2.370000e+00	-1.924448e+02	-3.890219e+00	0	0
2679531	2.370000e+00	-1.900610e+02	-2.465136e+00	0	0
2681484	2.370999e+00	-1.889161e+02	6.365820e+01	0	0
2683438	2.371000e+00	-1.836675e+02	1.667626e+02	0	0
2685391	2.371000e+00	-1.835851e+02	1.051849e+02	0	0
2687344	2.371000e+00	-1.855728e+02	-1.356278e-01	0	0
2689297	2.372000e+00	-1.741816e+02	-1.300896e+01	0	0
2691250	2.372000e+00	-1.852582e+02	-1.667900e+02	0	0
2693203	2.372000e+00	-1.873624e+02	-1.433848e+02	0	0
2695156	2.373000e+00	-1.984719e+02	-8.186526e+01	0	0
2697109	2.373000e+00	-1.835973e+02	3.612068e+00	0	0
2699063	2.374000e+00	-1.981767e+02	4.455863e+00	0	0
2701016	2.374000e+00	-1.958366e+02	4.882981e+00	0	0
2702969	2.374000e+00	-2.092597e+02	1.788720e+02	0	0
2704922	2.375000e+00	-1.983359e+02	1.332180e+02	0	0
2706875	2.375000e+00	-1.888222e+02	3.973029e+00	0	0
2708828	2.375000e+00	-1.897473e+02	3.282825e+00	0	0
2710781	2.376000e+00	-1.912103e+02	-1.780514e+02	0	0
2712734	2.376000e+00	-2.014456e+02	-1.581787e+02	0	0
2714688	2.376000e+00	-1.911065e+02	-1.053927e+02	0	0
2716641	2.376001e+00	-2.071425e+02	9.286630e-03	0	0
2718594	2.377000e+00	-2.226897e+02	-5.686472e-02	0	0
2720547	2.377000e+00	-2.019166e+02	4.414411e-02	0	0
2722500	2.377001e+00	-2.167660e+02	1.638977e+02	0	0
2724453	2.378000e+00	-2.018356e+02	1.887265e+02	0	0
2726406	2.378001e+00	-1.973982e+02	-7.537451e-02	0	0
2728359	2.379000e+00	-1.759287e+02	9.388160e-03	0	0
2730313	2.379000e+00	-1.694207e+02	-7.742695e+01	0	0
2732266	2.379000e+00	-1.778385e+02	-1.898052e+02	0	0
2734219	2.379001e+00	-1.797842e+02	-1.108134e+02	0	0
2736172	2.380000e+00	-2.143606e+02	-1.139641e+00	0	0
2738125	2.380001e+00	-2.410734e+02	-1.477583e+00	0	0
2740078	2.381000e+00	-2.711742e+02	-1.573680e+00	0	0
2742031	2.381000e+00	-2.536717e+02	9.791291e+01	0	0
2743984	2.381001e+00	-2.256246e+02	1.822887e+02	0	0
2745938	2.382000e+00	-1.569108e+02	2.253675e+01	0	0
2747891	2.382000e+00	-6.231681e+01	-9.340619e-01	0	0
2749844	2.382002e+00	3.130435e+01	-6.007101e+01	0	0
2751797	2.383000e+00	1.147482e+02	-1.791704e+02	0	0
2753750	2.383000e+00	2.350081e+02	-9.878787e+01	0	0
2755703	2.383002e+00	4.560026e+02	-4.725091e+01	0	0
2757656	2.384000e+00	7.698601e+02	1.189130e-01	0	0
2759609	2.384002e+00	9.654898e+02	-1.113506e-01	0	0
2761563	2.385000e+00	1.220333e+03	6.773960e+01	0	0
2763516	2.385000e+00	1.486812e+03	1.693833e+02	0	0
2765469	2.385002e+00	1.728343e+03	9.632486e+01	0	0
2767422	2.386000e+00	1.881020e+03	2.245301e-02	0	0
2769375	2.386000e+00	1.822744e+03	-2.436671e+01	0	0
2771328	2.386002e+00	1.675839e+03	-1.702873e+02	0	0
2773281	2.387000e+00	1.338165e+03	-1.527966e+02	0	0
2775234	2.387000e+00	9.925864e+02	-9.841366e+01	0	0
2777188	2.387003e+00	7.647384e+02	1.585114e+00	0	0
2779141	2.388000e+00	5.828674e+02	2.801140e+00	0	0
2781094	2.388000e+00	3.641546e+02	3.660260e+00	0	0
2783047	2.388003e+00	1.042608e+01	1.776167e+02	0	0
2785000	2.389000e+00	-3.006408e+02	1.214344e+02	0	0
2786953	2.389000e+00	-3.733934e+02	8.336198e-01	0	0
2788906	2.389003e+00	-3.783414e+02	3.904690e-01	0	0
2790859	2.390000e+00	-3.430803e+02	-1.784767e+02	0	0
2792813	2.390000e+00	-3.055564e+02	-1.382425e+02	0	0
2794766	2.390003e+00	-2.812208e+02	-9.962975e+01	0	0
2796719	2.391000e+00	-2.462140e+02	3.621636e-01	0	0
2798672	2.391000e+00	-2.017792e+02	-1.581324e-02	0	0
2800625	2.391003e+00	-1.709981e+02	5.168660e-01	0	0
2802578	2.392000e+00	-1.310473e+02	1.823659e+02	0	0
2804531	2.392000e+00	-1.160818e+02	1.702164e+02	0	0
2806484	2.392003e+00	-1.110967e+02	-1.941384e+00	0	0
2808438	2.393000e+00	-1.172518e+02	-6.936937e-01	0	0
2810391	2.393004e+00	-1.284927e+02	-9.411992e+01	0	0
2812344	2.394000e+00	-1.388629e+02	-1.851009e+02	0	0
2814297	2.394000e+00	-1.422921e+02	-1.132086e+02	0	0
2816250	2.394004e+00	-1.385133e+02	3.755253e-01	0	0
2818203	2.395000e+00	-1.519050e+02	4.289644e-02	0	0
2820156	2.395000e+00	-1.440380e+02	3.254932e-01	0	0
2822109	2.395004e+00	-1.468454e+02	1.022797e+02	0	0
2824063	2.396000e+00	-1.451591e+02	1.867822e+02	0	0
2826016	2.396000e+00	-1.358723e+02	1.376145e+01	0	0
2827969	2.396004e+00	-1.291586e+02	-1.104778e+00	0	0
2829922	2.397000e+00	-1.342700e+02	-6.641526e+01	0	0
2831875	2.397000e+00	-1.100986e+02	-1.839892e+02	0	0
2833828	2.397004e+00	-1.246121e+02	-1.084209e+02	0	0
2835781	2.398000e+00	-1.287558e+02	-1.868755e+01	0	0
2837734	2.398004e+00	-1.215905e+02	-2.502757e+00	0	0
2839688	2.399000e+00	-1.408082e+02	-2.355437e+00	0	0
2841641	2.399000e+00	-1.276244e+02	8.494516e+01	0	0
2843594	2.399005e+00	-1.341160e+02	1.751055e+02	0	0
2845547	2.400000e+00	-1.192040e+02	9.692342e+01	0	0
2847500	2.400000e+00	-9.462113e+01	-8.092677e-02	0	0
2849453	2.400005e+00	-1.029913e+02	-4.170845e+01	0	0
2851406	2.401000e+00	-9.844766e+01	-1.737909e+02	0	0
2853359	2.401000e+00	-1.094535e+02	-1.350815e+02	0	0
2855313	2.401005e+00	-1.085311e+02	-9.078049e+01	0	0
2857266	2.402000e+00	-1.286926e+02	2.256768e+00	0	0
2859219	2.402000e+00	-1.426056e+02	1.781023e+00	0	0
2861172	2.402005e+00	-1.258858e+02	2.221195e+00	0	0
2863125	2.403000e+00	-1.194457e+02	1.796570e+02	0	0
2865078	2.403005e+00	-1.048913e+02	1.145356e+02	0	0
2867031	2.404000e+00	-8.519651e+01	2.778664e+00	0	0
2868984	2.404000e+00	-8.931525e+01	2.500471e+00	0	0
2870938	2.404006e+00	-9.353762e+01	-1.771373e+02	0	0
2872891	2.405000e+00	-1.120053e+02	-1.528231e+02	0	0
2874844	2.405006e+00	-1.021793e+02	-1.034797e+02	0	0
2876797	2.406000e+00	-1.007360e+02	2.763166e+00	0	0
2878750	2.406000e+00	-8.765054e+01	1.545950e+00	0	0
2880703	2.406006e+00	-9.590311e+01	1.851444e+00	0	0
2882656	2.407000e+00	-1.004943e+02	1.835500e+02	0	0
2884609	2.407000e+00	-7.359053e+01	1.707210e+02	0	0
2886563	2.407006e+00	-7.470244e+01	-3.793476e-01	0	0
2888516	2.408000e+00	-7.131836e+01	2.536555e-03	0	0
2890469	2.408006e+00	-6.380887e+01	-1.030999e+02	0	0
2892422	2.409000e+00	-6.335937e+01	-1.841131e+02	0	0
2894375	2.409006e+00	-6.927382e+01	-1.375859e+02	0	0
2896328	2.410000e+00	-7.450728e+01	7.003200e-01	0	0
2898281	2.410000e+00	-8.048284e+01	-7.520532e-01	0	0
2900234	2.410000e+00	-6.883609e+01	-1.209544e+00	0	0
2902188	2.410007e+00	-6.091003e+01	1.209464e+02	0	0
2904141	2.411000e+00	-5.578177e+01	1.810271e+02	0	0
2906094	2.411000e+00	-5.305783e+01	5.384274e+00	0	0
2908047	2.411007e+00	-3.789670e+01	-4.388355e+00	0	0
2910000	2.412000e+00	-4.126549e+01	-5.427005e+01	0	0
2911953	2.412007e+00	-3.831964e+01	-1.889861e+02	0	0
2913906	2.413000e+00	-4.151604e+01	-9.848050e+01	0	0
2915859	2.413000e+00	-3.612064e+01	-2.934439e+01	0	0
2917813	2.413008e+00	-4.377023e+01	-3.556969e+00	0	0
2919766	2.414000e+00	-3.651882e+01	-3.283926e+00	0	0
2921719	2.414000e+00	-2.260864e+01	8.795085e+01	0	0
2923672	2.414008e+00	-1.007293e+01	1.798176e+02	0	0
2925625	2.415000e+00	-1.654012e+01	7.655715e+01	0	0
2927578	2.415000e+00	-7.465489e+00	1.094873e-01	0	0
2929531	2.415008e+00	1.717564e+00	-2.960842e+01	0	0
2931484	2.416000e+00	3.178233e+00	-1.797267e+02	0	0
2933438	2.416008e+00	5.226209e+00	-1.341898e+02	0	0
2935391	2.417000e+00	1.640296e+01	-8.756733e+01	0	0
2937344	2.417008e+00	8.200892e+00	2.349235e+00	0	0
2939297	2.418000e+00	4.250314e-01	3.435659e+00	0	0
2941250	2.418000e+00	2.740544e+01	6.454804e+00	0	0
2943203	2.418000e+00	3.275535e+01	1.873634e+02	0	0
2945156	2.418008e+00	4.229084e+01	1.003967e+02	0	0
2947109	2.419000e+00	5.963132e+01	3.893697e+00	0	0
2949063	2.419009e+00	5.234516e+01	2.706224e+00	0	0
2951016	2.420000e+00	5.853162e+01	-1.791466e+02	0	0
2952969	2.420009e+00	6.647853e+01	-1.522400e+02	0	0
2954922	2.421000e+00	6.063487e+01	-1.052746e+02	0	0
2956875	2.421000e+00	7.518671e+01	6.046285e+00	0	0
2958828	2.421009e+00	8.663087e+01	5.224712e+00	0	0
2960781	2.422000e+00	8.566934e+01	4.253295e+00	0	0
2962734	2.422000e+00	9.596759e+01	1.883673e+02	0	0
2964688	2.422009e+00	1.036711e+02	1.633969e+02	0	0
2966641	2.423000e+00	1.137988e+02	8.732281e-01	0	0
2968594	2.423000e+00	1.311712e+02	3.786678e+00	0	0
2970547	2.423009e+00	1.324111e+02	-1.176446e+02	0	0
2972500	2.424000e+00	1.481852e+02	-1.881530e+02	0	0
2974453	2.424009e+00	1.531868e+02	-1.272196e+02	0	0
2976406	2.425000e+00	1.656776e+02	-2.679950e+00	0	0
2978359	2.425009e+00	1.641363e+02	5.917903e+00	0	0
2980313	2.426000e+00	1.826365e+02	7.401125e+00	0	0
2982266	2.426000e+00	1.899079e+02	1.069017e+02	0	0
2984219	2.426010e+00	2.064814e+02	2.049263e+02	0	0
2986172	2.427000e+00	2.300776e+02	1.220794e+00	0	0
2988125	2.427000e+00	2.576522e+02	3.400547e-01	0	0
2990078	2.427010e+00	2.687910e+02	-6.997193e+01	0	0
2992031	2.428000e+00	2.789333e+02	-1.982292e+02	0	0
2993984	2.428000e+00	2.893231e+02	-1.021693e+02	0	0
2995938	2.428010e+00	2.981682e+02	-1.081218e+01	0	0
2997891	2.429000e+00	3.069525e+02	-9.524400e+00	0	0
2999844	2.429000e+00	3.007402e+02	-7.359689e+00	0	0
3001797	2.429010e+00	3.200589e+02	8.359790e+01	0	0
3003750	2.430000e+00	3.349429e+02	1.786401e+02	0	0
3005703	2.430010e+00	3.545266e+02	8.062692e+01	0	0
3007656	2.431000e+00	3.668753e+02	-1.188500e+00	0	0
3009609	2.431000e+00	3.640670e+02	-2.436403e+01	0	0
3011563	2.431011e+00	3.840833e+02	-1.753453e+02	0	0
3013516	2.432000e+00	3.942975e+02	-1.314459e+02	0	0
3015469	2.432011e+00	3.972272e+02	-8.224261e+01	0	0
3017422	2.433000e+00	4.003341e+02	2.267699e+00	0	0
3019375	2.433000e+00	4.209400e+02	5.342850e-01	0	0
3021328	2.433011e+00	4.342046e+02	9.509796e+00	0	0
3023281	2.434000e+00	4.414469e+02	1.723146e+02	0	0
3025234	2.434000e+00	4.538370e+02	1.089384e+02	0	0
3027188	2.434011e+00	4.682396e+02	1.138444e+00	0	0
3029141	2.435000e+00	4.686587e+02	8.457977e-01	0	0
3031094	2.435000e+00	4.482117e+02	-1.701297e+02	0	0
3033047	2.435011e+00	4.373990e+02	-1.512789e+02	0	0
3035000	2.436000e+00	4.179461e+02	-9.418334e+01	0	0
3036953	2.436011e+00	4.048419e+02	3.320715e+00	0	0
3038906	2.437000e+00	3.883547e+02	1.894788e+00	0	0
3040859	2.437000e+00	3.548668e+02	3.343270e+00	0	0
3042813	2.437012e+00	3.444077e+02	1.793000e+02	0	0
3044766	2.438000e+00	3.345844e+02	1.500851e+02	0	0
3046719	2.438000e+00	3.113602e+02	-5.513790e-02	0	0
3048672	2.438012e+00	2.954480e+02	-8.827925e-02	0	0
3050625	2.439000e+00	2.648516e+02	-1.334567e+02	0	0
3052578	2.439012e+00	2.204182e+02	-1.814102e+02	0	0
3054531	2.440000e+00	1.912371e+02	-1.252700e+02	0	0
3056484	2.440000e+00	1.662665e+02	1.249990e+00	0	0
3058438	2.440012e+00	1.195348e+02	9.411993e-01	0	0
3060391	2.441000e+00	1.146780e+02	4.671155e+00	0	0
3062344	2.441000e+00	7.041492e+01	1.164915e+02	0	0
3064297	2.441012e+00	6.319504e+01	1.914367e+02	0	0
3066250	2.442000e+00	4.233875e+01	4.100646e+00	0	0
3068203	2.442000e+00	4.526988e+01	1.698393e+00	0	0
3070156	2.442012e+00	2.964176e+01	-6.017355e+01	0	0
3072109	2.443000e+00	-1.233008e+01	-1.857335e+02	0	0
3074063	2.443000e+00	-2.109963e+01	-1.072121e+02	0	0
3076016	2.443013e+00	-5.131587e+01	-1.844823e+01	0	0
3077969	2.444000e+00	-6.516198e+01	-1.493298e+01	0	0
3079922	2.444013e+00	-7.872118e+01	-1.459005e+01	0	0
3081875	2.445000e+00	-8.659501e+01	9.365418e+01	0	0
3083828	2.445000e+00	-8.605898e+01	1.624344e+02	0	0
3085781	2.445013e+00	-8.773479e+01	6.614516e+01	0	0
3087734	2.446000e+00	-7.599508e+01	-3.816693e+00	0	0
3089688	2.446013e+00	-8.761868e+01	-3.363211e+01	0	0
3091641	2.447000e+00	-1.112896e+02	-1.664743e+02	0	0
3093594	2.447000e+00	-1.147230e+02	-1.264087e+02	0	0
3095547	2.447013e+00	-1.236975e+02	-6.771010e+01	0	0
3097500	2.448000e+00	-1.206362e+02	6.633235e+00	0	0
3099453	2.448000e+00	-1.273319e+02	2.977774e+00	0	0
3101406	2.448013e+00	-1.313236e+02	7.940480e+00	0	0
3103359	2.449000e+00	-1.380185e+02	1.813688e+02	0	0
3105313	2.449014e+00	-1.100611e+02	1.061642e+02	0	0
3107266	2.450000e+00	-1.263079e+02	6.352366e+00	0	0
3109219	2.450000e+00	-1.259272e+02	-4.205031e+00	0	0
3111172	2.450014e+00	-1.081479e+02	-1.799613e+02	0	0
3113125	2.451000e+00	-1.170586e+02	-1.301620e+02	0	0
3115078	2.451000e+00	-1.271042e+02	-1.024202e+02	0	0
3117031	2.451014e+00	-1.396864e+02	5.353621e+00	0	0
3118984	2.452000e+00	-1.436964e+02	4.065227e+00	0	0
3120938	2.452000e+00	-1.427402e+02	7.162632e+00	0	0
3122891	2.452014e+00	-1.303501e+02	1.955186e+02	0	0
3124844	2.453000e+00	-1.253403e+02	1.561585e+02	0	0
3126797	2.453014e+00	-1.251042e+02	2.709226e+00	0	0
3128750	2.454000e+00	-1.114219e+02	9.776603e-01	0	0
3130703	2.454014e+00	-1.181929e+02	-1.451853e+02	0	0
3132656	2.455000e+00	-1.223708e+02	-1.886307e+02	0	0
3134609	2.455000e+00	-1.179133e+02	-1.198659e+02	0	0
3136563	2.455015e+00	-1.203569e+02	7.100455e+00	0	0
3138516	2.456000e+00	-1.263186e+02	9.306129e+00	0	0
3140469	2.456000e+00	-1.315568e+02	1.025570e+01	0	0
3142422	2.456015e+00	-1.304281e+02	1.329630e+02	0	0
3144375	2.457000e+00	-1.250608e+02	1.950396e+02	0	0
3146328	2.457000e+00	-1.318561e+02	-5.785056e-01	0	0
3148281	2.457015e+00	-1.355693e+02	-6.666511e+00	0	0
3150234	2.458000e+00	-1.063808e+02	-6.818940e+01	0	0
3152188	2.458016e+00	-1.184357e+02	-2.004368e+02	0	0
3154141	2.459000e+00	-1.339799e+02	-1.036093e+02	0	0
3156094	2.459000e+00	-1.383930e+02	-2.143373e+01	0	0
3158047	2.459016e+00	-1.477398e+02	-2.248330e+01	0	0
3160000	2.460000e+00	-1.525017e+02	-1.810686e+01	0	0
3161953	2.460000e+00	-1.595009e+02	9.622057e+01	0	0
3163906	2.460016e+00	-1.554994e+02	1.653534e+02	0	0
3165859	2.461000e+00	-1.512805e+02	4.070322e+01	0	0
3167813	2.461000e+00	-1.361097e+02	1.482167e-01	0	0
3169766	2.461016e+00	-1.374582e+02	-3.650502e+01	0	0
3171719	2.462000e+00	-1.395729e+02	-1.590635e+02	0	0
3173672	2.462016e+00	-1.394553e+02	-1.315450e+02	0	0
3175625	2.463000e+00	-1.528493e+02	-6.311776e+01	0	0
3177578	2.463000e+00	-1.528712e+02	5.477188e+00	0	0
3179531	2.463016e+00	-1.622546e+02	9.482608e-01	0	0
3181484	2.464000e+00	-1.463006e+02	1.147609e+01	0	0
3183438	2.464000e+00	-1.442829e+02	1.761566e+02	0	0
3185391	2.464017e+00	-1.372007e+02	9.261468e+01	0	0
3187344	2.465000e+00	-1.402254e+02	6.805762e+00	0	0
3189297	2.465017e+00	-1.244707e+02	-1.101252e+00	0	0
3191250	2.466000e+00	-1.238129e+02	-1.708851e+02	0	0
3193203	2.466000e+00	-1.382890e+02	-1.356398e+02	0	0
3195156	2.466017e+00	-1.289567e+02	-8.492054e+01	0	0
3197109	2.467000e+00	-1.481268e+02	4.469660e+00	0	0
3199063	2.467017e+00	-1.331301e+02	2.826245e+00	0	0
3201016	2.468000e+00	-1.360762e+02	5.836648e+00	0	0
3202969	2.468000e+00	-1.328535e+02	1.868008e+02	0	0
3204922	2.468000e+00	-1.228772e+02	1.584902e+02	0	0
3206875	2.468017e+00	-1.161708e+02	1.883192e+00	0	0
3208828	2.469000e+00	-9.676980e+01	-4.413092e-02	0	0
3210781	2.469017e+00	-9.834974e+01	-1.595762e+02	0	0
3212734	2.470000e+00	-1.237683e+02	-1.863584e+02	0	0
3214688	2.470000e+00	-1.177175e+02	-1.319707e+02	0	0
3216641	2.470018e+00	-1.407796e+02	7.929077e+00	0	0
3218594	2.471000e+00	-1.520141e+02	6.369183e+00	0	0
3220547	2.471018e+00	-1.502878e+02	6.935503e+00	0	0
3222500	2.472000e+00	-1.400778e+02	1.407822e+02	0	0
3224453	2.472000e+00	-1.355320e+02	1.894305e+02	0	0
3226406	2.472018e+00	-1.318037e+02	-6.606885e+00	0	0
3228359	2.473000e+00	-1.062128e+02	-4.920739e+00	0	0
3230313	2.473000e+00	-1.048023e+02	-5.357709e+01	0	0
3232266	2.473019e+00	-1.086932e+02	-2.035169e+02	0	0
3234219	2.474000e+00	-1.106026e+02	-1.295091e+02	0	0
3236172	2.474000e+00	-1.083293e+02	-1.415037e+01	0	0
3238125	2.474019e+00	-1.349547e+02	-1.422950e+01	0	0
3240078	2.475000e+00	-1.311949e+02	-9.080714e+00	0	0
3242031	2.475000e+00	-1.250238e+02	9.804423e+01	0	0
3243984	2.475019e+00	-1.213732e+02	1.754456e+02	0	0
3245938	2.476000e+00	-9.411150e+01	4.874438e+01	0	0
3247891	2.476000e+00	-1.010981e+02	5.497270e-01	0	0
3249844	2.476019e+00	-1.228378e+02	-4.985382e+01	0	0
3251797	2.477000e+00	-1.096326e+02	-1.711620e+02	0	0
3253750	2.477019e+00	-1.336331e+02	-1.153964e+02	0	0
3255703	2.478000e+00	-1.321748e+02	-7.462024e+01	0	0
3257656	2.478000e+00	-1.240134e+02	9.936087e-01	0	0
3259609	2.478019e+00	-1.241585e+02	-3.559328e-01	0	0
3261563	2.479000e+00	-1.322983e+02	2.861538e+01	0	0
3263516	2.479000e+00	-1.214999e+02	1.802223e+02	0	0
3265469	2.479020e+00	-1.220864e+02	1.007252e+02	0	0
3267422	2.480000e+00	-1.113070e+02	2.174549e+00	0	0
3269375	2.480000e+00	-1.021993e+02	-1.161577e+01	0	0
3271328	2.480020e+00	-1.039398e+02	-1.787034e+02	0	0
3273281	2.481000e+00	-1.016854e+02	-1.450903e+02	0	0
3275234	2.481000e+00	-1.309759e+02	-8.153719e+01	0	0
3277188	2.481020e+00	-1.232661e+02	3.127666e+00	0	0
3279141	2.482000e+00	-1.372842e+02	2.265260e+00	0	0
3281094	2.482020e+00	-1.408525e+02	6.910640e+00	0	0
3283047	2.483000e+00	-1.310733e+02	1.864696e+02	0	0
3285000	2.483000e+00	-1.165492e+02	1.370230e+02	0	0
3286953	2.483000e+00	-1.288979e+02	3.320641e+00	0	0
3288906	2.483020e+00	-1.164646e+02	1.282913e+00	0	0
3290859	2.484000e+00	-1.074078e+02	-1.649442e+02	0	0
3292813	2.484021e+00	-1.220125e+02	-1.766476e+02	0	0
3294766	2.485000e+00	-1.335141e+02	-1.234753e+02	0	0
3296719	2.485000e+00	-1.355825e+02	1.021794e+01	0	0
3298672	2.485021e+00	-1.324209e+02	5.850708e+00	0	0
3300625	2.486000e+00	-1.342042e+02	4.471167e+00	0	0
3302578	2.486000e+00	-1.229484e+02	1.357090e+02	0	0
3304531	2.486021e+00	-1.191007e+02	1.893385e+02	0	0
3306484	2.487000e+00	-1.172247e+02	-4.091310e+00	0	0
3308438	2.487000e+00	-1.213681e+02	-6.385118e+00	0	0
3310391	2.487022e+00	-1.014315e+02	-6.509035e+01	0	0
3312344	2.488000e+00	-1.115776e+02	-2.076782e+02	0	0
3314297	2.488000e+00	-1.140924e+02	-1.172614e+02	0	0
3316250	2.488022e+00	-1.322070e+02	-8.545379e+00	0	0
3318203	2.489000e+00	-1.265156e+02	-6.180027e+00	0	0
3320156	2.489000e+00	-1.211354e+02	-4.199618e+00	0	0
3322109	2.489022e+00	-1.358939e+02	9.254066e+01	0	0
3324063	2.490000e+00	-1.369646e+02	1.841430e+02	0	0
3326016	2.490000e+00	-1.329053e+02	3.771040e+01	0	0
3327969	2.490022e+00	-1.230912e+02	5.180810e+00	0	0
3329922	2.491000e+00	-1.105482e+02	-5.739351e+01	0	0
3331875	2.491000e+00	-1.204004e+02	-1.809058e+02	0	0
3333828	2.491022e+00	-1.322644e+02	-1.222664e+02	0	0
3335781	2.492000e+00	-1.214195e+02	-5.171534e+01	0	0
3337734	2.492000e+00	-1.246239e+02	7.540643e-01	0	0
3339688	2.492023e+00	-1.260950e+02	-1.073948e+00	0	0
3341641	2.493000e+00	-1.504413e+02	4.257871e+01	0	0
3343594	2.493023e+00	-1.202197e+02	1.705982e+02	0	0
3345547	2.494000e+00	-1.322009e+02	1.004340e+02	0	0
3347500	2.494000e+00	-1.144679e+02	2.464045e+00	0	0
3349453	2.494023e+00	-1.043911e+02	-9.770858e+00	0	0
3351406	2.495000e+00	-1.258377e+02	-1.679551e+02	0	0
3353359	2.495000e+00	-1.093151e+02	-1.500212e+02	0	0
3355313	2.495000e+00	-1.163167e+02	-9.992740e+01	0	0
3357266	2.495023e+00	-1.466729e+02	5.647870e+00	0	0
3359219	2.496000e+00	-1.349684e+02	3.048897e+00	0	0
3361172	2.496023e+00	-1.332353e+02	7.046531e+00	0	0
3363125	2.497000e+00	-1.265112e+02	1.789995e+02	0	0
3365078	2.497000e+00	-1.151759e+02	1.162275e+02	0	0
3367031	2.497023e+00	-1.094044e+02	3.535493e+00	0	0
3368984	2.498000e+00	-1.140437e+02	1.464804e+00	0	0
3370938	2.498000e+00	-1.177239e+02	-1.750905e+02	0	0
3372891	2.498024e+00	-1.127111e+02	-1.588669e+02	0	0
3374844	2.499000e+00	-1.217777e+02	-1.220705e+02	0	0
3376797	2.499000e+00	-1.323110e+02	7.384652e+00	0	0
3378750	2.499024e+00	-1.272280e+02	1.970558e+00	0	0
3380703	2.500000e+00	-1.102371e+02	2.853047e+00	0	0
3382656	2.500000e+00	-1.098742e+02	1.591555e+02	0	0
3384609	2.500000e+00	-8.239665e+01	1.851533e+02	0	0
3386563	2.500025e+00	-8.099143e+01	-2.472733e+00	0	0
3388516	2.501000e+00	-4.310089e+01	1.338342e-01	0	0
3390469	2.501025e+00	-2.067967e+01	-8.056691e+01	0	0
3392422	2.502000e+00	5.780444e+00	-1.902679e+02	0	0
3394375	2.502000e+00	2.620408e+01	-1.134740e+02	0	0
3396328	2.502025e+00	1.877626e+01	-1.125456e+00	0	0
3398281	2.503000e+00	2.402805e+01	-3.598340e+00	0	0
3400234	2.503000e+00	3.180007e+01	-1.363821e+00	0	0
3402188	2.503025e+00	8.996875e+00	1.062643e+02	0	0
3404141	2.504000e+00	4.948312e+00	1.822523e+02	0	0
3406094	2.504000e+00	4.420418e+01	5.607060e+01	0	0
3408047	2.504000e+00	4.246645e+01	-7.236515e-01	0	0
3410000	2.504025e+00	6.117744e+01	-6.686373e+01	0	0
3411953	2.505000e+00	7.676078e+01	-1.801186e+02	0	0
3413906	2.505000e+00	6.274959e+01	-1.212001e+02	0	0
3415859	2.505025e+00	7.516447e+01	-5.791832e+01	0	0
3417813	2.506000e+00	6.103737e+01	1.639702e+00	0	0
3419766	2.506026e+00	7.750979e+01	1.372755e+00	0	0
3421719	2.507000e+00	8.586857e+01	4.863023e+01	0	0
3423672	2.507000e+00	9.858712e+01	1.780042e+02	0	0
3425625	2.507000e+00	1.226482e+02	9.366345e+01	0	0
3427578	2.507026e+00	1.458348e+02	2.314488e+00	0	0
3429531	2.508000e+00	1.506075e+02	-1.737940e+01	0	0
3431484	2.508000e+00	1.427437e+02	-1.739639e+02	0	0
3433438	2.508026e+00	1.343261e+02	-1.472928e+02	0	0
3435391	2.509000e+00	1.145953e+02	-8.759576e+01	0	0
3437344	2.509000e+00	1.016649e+02	2.595959e+00	0	0
3439297	2.509026e+00	8.688438e+01	-6.543170e-01	0	0
3441250	2.510000e+00	8.986404e+01	3.028569e+00	0	0
3443203	2.510000e+00	7.983625e+01	1.800149e+02	0	0
3445156	2.510026e+00	1.006016e+02	1.414938e+02	0	0
3447109	2.511000e+00	1.345487e+02	-2.268302e+00	0	0
3449063	2.511000e+00	1.123161e+02	-4.100740e+00	0	0
3451016	2.511027e+00	7.944829e+01	-1.865875e+02	0	0
3452969	2.512000e+00	3.061548e+01	-1.494878e+02	0	0
3454922	2.512000e+00	1.586658e+01	-1.105092e+02	0	0
3456875	2.512027e+00	-5.381742e+00	4.198847e-01	0	0
3458828	2.513000e+00	-3.587561e+01	-2.214539e+00	0	0
3460781	2.513000e+00	-4.439055e+01	1.843137e+00	0	0
3462734	2.513027e+00	-5.721695e+01	1.670708e+02	0	0
3464688	2.514000e+00	-6.495360e+01	1.837762e+02	0	0
3466641	2.514000e+00	-7.597541e+01	-7.428338e+00	0	0
3468594	2.514028e+00	-7.053358e+01	-4.180145e+00	0	0
3470547	2.515000e+00	-6.950210e+01	-6.967183e+01	0	0
3472500	2.515000e+00	-7.478310e+01	-1.958952e+02	0	0
3474453	2.515028e+00	-9.434677e+01	-9.979649e+01	0	0
3476406	2.516000e+00	-9.978021e+01	-5.506252e+00	0	0
3478359	2.516000e+00	-1.296934e+02	-4.437026e+00	0	0
3480313	2.516000e+00	-1.389119e+02	1.086543e+00	0	0
3482266	2.516028e+00	-1.481700e+02	1.028819e+02	0	0
3484219	2.517000e+00	-1.552636e+02	1.767812e+02	0	0
3486172	2.517028e+00	-1.349685e+02	2.205893e+01	0	0
3488125	2.518000e+00	-1.188483e+02	2.637257e+00	0	0
3490078	2.518000e+00	-1.331649e+02	-7.000118e+01	0	0
3492031	2.518000e+00	-1.437012e+02	-1.706503e+02	0	0
3493984	2.518028e+00	-1.415785e+02	-1.181113e+02	0	0
3495938	2.519000e+00	-1.311919e+02	-5.618072e+01	0	0
3497891	2.519000e+00	-1.503488e+02	9.180278e-01	0	0
3499844	2.519029e+00	-1.644275e+02	3.313716e-01	0	0
3501797	2.520000e+00	-1.652310e+02	5.464803e+01	0	0
3503750	2.520000e+00	-1.592382e+02	1.747857e+02	0	0
3505703	2.520029e+00	-1.614814e+02	8.566180e+01	0	0
3507656	2.521000e+00	-1.481586e+02	1.115491e+00	0	0
3509609	2.521000e+00	-1.447741e+02	-2.170757e+01	0	0
3511563	2.521000e+00	-1.569093e+02	-1.756411e+02	0	0
3513516	2.521029e+00	-1.529232e+02	-1.332590e+02	0	0
3515469	2.522000e+00	-1.415786e+02	-7.648035e+01	0	0
3517422	2.522000e+00	-1.677590e+02	3.180803e+00	0	0
3519375	2.522029e+00	-1.630569e+02	1.414224e-01	0	0
3521328	2.523000e+00	-1.991069e+02	4.869725e+00	0	0
3523281	2.523000e+00	-1.913524e+02	1.862090e+02	0	0
3525234	2.523029e+00	-1.586084e+02	1.310221e+02	0	0
3527188	2.524000e+00	-1.748459e+02	-7.440366e-01	0	0
3529141	2.524000e+00	-1.505599e+02	-3.127386e+00	0	0
3531094	2.524030e+00	-1.586053e+02	-1.882291e+02	0	0
3533047	2.525000e+00	-1.578848e+02	-1.635046e+02	0	0
3535000	2.525030e+00	-1.512587e+02	-1.127837e+02	0	0
3536953	2.526000e+00	-1.425593e+02	2.270096e+00	0	0
3538906	2.526000e+00	-1.514188e+02	-1.196469e+00	0	0
3540859	2.526000e+00	-1.509880e+02	3.226921e+00	0	0
3542813	2.526000e+00	-1.890745e+02	1.721298e+02	0	0
3544766	2.526031e+00	-2.029254e+02	1.828467e+02	0	0
3546719	2.527000e+00	-1.905048e+02	-2.823046e+00	0	0
3548672	2.527031e+00	-1.669370e+02	-3.834529e-01	0	0
3550625	2.528000e+00	-1.409795e+02	-9.835335e+01	0	0
3552578	2.528000e+00	-8.867676e+01	-1.878180e+02	0	0
3554531	2.528000e+00	7.409360e-01	-1.273621e+02	0	0
3556484	2.528031e+00	7.834489e+01	1.857447e+00	0	0
3558438	2.529000e+00	1.509407e+02	-1.489934e+00	0	0
3560391	2.529000e+00	3.225184e+02	7.762914e-01	0	0
3562344	2.529031e+00	5.949431e+02	1.044025e+02	0	0
3564297	2.530000e+00	8.438825e+02	1.830573e+02	0	0
3566250	2.530000e+00	1.058935e+03	2.796982e+01	0	0
3568203	2.530000e+00	1.363180e+03	-2.313595e+00	0	0
3570156	2.530031e+00	1.602104e+03	-5.747734e+01	0	0
3572109	2.531000e+00	1.806163e+03	-1.871423e+02	0	0
3574063	2.531000e+00	1.846017e+03	-9.846155e+01	0	0
3576016	2.531032e+00	1.741016e+03	-2.408235e+01	0	0
3577969	2.532000e+00	1.477839e+03	-2.963856e+00	0	0
3579922	2.532032e+00	1.079724e+03	-1.778878e+00	0	0
3581875	2.532968e+00	8.838959e+02	7.069272e+01	0	0
3583828	2.532032e+00	6.602252e+02	1.765640e+02	0	0
3585781	2.533000e+00	4.826838e+02	9.455630e+01	0	0
3587734	2.533032e+00	2.602042e+02	-1.355975e+00	0	0
3589688	2.534000e+00	-1.294695e+02	-1.897882e+01	0	0
3591641	2.534000e+00	-3.241181e+02	-1.785464e+02	0	0
3593594	2.534000e+00	-3.580080e+02	-1.333209e+02	0	0
3595547	2.534032e+00	-3.071233e+02	-7.603331e+01	0	0
3597500	2.535000e+00	-2.812221e+02	1.494400e+00	0	0
3599453	2.535000e+00	-2.616690e+02	-1.433999e+00	0	0
3601406	2.535032e+00	-2.163582e+02	4.602253e+00	0	0
3603359	2.536000e+00	-1.603424e+02	1.816822e+02	0	0
3605313	2.536000e+00	-1.166796e+02	1.211449e+02	0	0
3607266	2.536000e+00	-1.081921e+02	2.066298e+00	0	0
3609219	2.536033e+00	-9.706514e+01	-4.728672e-01	0	0
3611172	2.537000e+00	-8.565170e+01	-1.788272e+02	0	0
3613125	2.537000e+00	-8.537944e+01	-1.327839e+02	0	0
3615078	2.537033e+00	-1.130681e+02	-1.032391e+02	0	0
3617031	2.538000e+00	-9.888079e+01	5.670131e+00	0	0
3618984	2.538000e+00	-8.959600e+01	1.391858e+00	0	0
3620938	2.538034e+00	-9.657764e+01	6.715355e+00	0	0
3622891	2.539000e+00	-9.970481e+01	1.908568e+02	0	0
3624844	2.539000e+00	-8.658838e+01	1.680897e+02	0	0
3626797	2.539034e+00	-7.271462e+01	-1.603515e+00	0	0
3628750	2.540000e+00	-7.408851e+01	-6.161218e-01	0	0
3630703	2.540000e+00	-9.648237e+01	-1.075255e+02	0	0
3632656	2.540000e+00	-1.029620e+02	-1.871871e+02	0	0
3634609	2.540034e+00	-1.115792e+02	-1.351021e+02	0	0
3636563	2.541000e+00	-9.716119e+01	1.036082e+00	0	0
3638516	2.541000e+00	-1.282380e+02	2.377658e-01	0	0
3640469	2.541000e+00	-9.973099e+01	3.489466e+00	0	0
3642422	2.541034e+00	-9.725867e+01	1.099381e+02	0	0
3644375	2.542000e+00	-9.530800e+01	1.860227e+02	0	0
3646328	2.542000e+00	-1.027375e+02	1.149721e+01	0	0
3648281	2.542034e+00	-8.083876e+01	4.462662e-01	0	0
3650234	2.543000e+00	-6.907587e+01	-6.125176e+01	0	0
3652188	2.543000e+00	-8.583234e+01	-1.859347e+02	0	0
3654141	2.543035e+00	-8.260820e+01	-9.603240e+01	0	0
3656094	2.544000e+00	-7.625976e+01	-3.182447e+01	0	0
3658047	2.544000e+00	-7.661652e+01	-4.602780e+00	0	0
3660000	2.544035e+00	-7.048034e+01	-3.610996e+00	0	0
3661953	2.545000e+00	-6.237389e+01	8.358624e+01	0	0
3663906	2.545000e+00	-6.395084e+01	1.740165e+02	0	0
3665859	2.545035e+00	-6.464657e+01	8.418079e+01	0	0
3667813	2.546000e+00	-5.708839e+01	-2.372789e+00	0	0
3669766	2.546000e+00	-4.538369e+01	-2.656052e+01	0	0
3671719	2.546000e+00	-6.075431e+01	-1.782688e+02	0	0
3673672	2.546035e+00	-4.111326e+01	-1.482185e+02	0	0
3675625	2.547000e+00	-4.534309e+01	-7.679534e+01	0	0
3677578	2.547000e+00	-5.081310e+01	1.819152e+00	0	0
3679531	2.547035e+00	-6.694734e+01	-1.401498e+00	0	0
3681484	2.548000e+00	-5.629497e+01	5.537639e+00	0	0
3683438	2.548000e+00	-7.041292e+01	1.817042e+02	0	0
3685391	2.548000e+00	-4.629647e+01	1.097599e+02	0	0
3687344	2.548036e+00	-7.310212e+00	1.440548e+00	0	0
3689297	2.549000e+00	-1.959570e+01	-1.576624e+00	0	0
3691250	2.549000e+00	-1.993375e+01	-1.816193e+02	0	0
3693203	2.549036e+00	-2.554922e+01	-1.414878e+02	0	0
3695156	2.550000e+00	-5.232345e+01	-9.824011e+01	0	0
3697109	2.550000e+00	-2.778311e+01	4.347432e+00	0	0
3699063	2.550037e+00	-5.047227e+01	-3.258993e-01	0	0
3701016	2.551000e+00	-2.873136e+00	5.260978e+00	0	0
3702969	2.551000e+00	-1.585309e+01	1.890445e+02	0	0
3704922	2.551000e+00	-8.269990e+00	1.601640e+02	0	0
3706875	2.551037e+00	9.828113e+00	-2.510535e+00	0	0
3708828	2.552000e+00	-8.023491e+00	-1.377721e+00	0	0
3710781	2.552000e+00	9.204284e+00	-1.223904e+02	0	0
3712734	2.552037e+00	-2.170694e+01	-1.866302e+02	0	0
3714688	2.553000e+00	2.974253e+00	-1.308602e+02	0	0
3716641	2.553000e+00	4.844486e+00	4.557708e+00	0	0
3718594	2.553000e+00	-1.155640e+00	1.223375e+00	0	0
3720547	2.553037e+00	-3.847454e+00	4.329890e+00	0	0
3722500	2.554000e+00	6.891814e+00	1.111793e+02	0	0
3724453	2.554000e+00	1.263244e+01	1.850117e+02	0	0
3726406	2.554037e+00	2.394572e+01	1.112158e+01	0	0
3728359	2.555000e+00	4.494811e+01	-3.882462e-01	0	0
3730313	2.555000e+00	3.991738e+01	-6.220892e+01	0	0
3732266	2.555038e+00	2.767294e+01	-1.879001e+02	0	0
3734219	2.556000e+00	4.654223e+01	-1.041350e+02	0	0
3736172	2.556000e+00	5.233202e+01	-2.626032e+01	0	0
3738125	2.556000e+00	5.421162e+01	-4.025646e+00	0	0
3740078	2.556038e+00	5.214008e+01	-7.528216e-01	0	0
3742031	2.557000e+00	4.454438e+01	9.431892e+01	0	0
3743984	2.557000e+00	6.596598e+01	1.773251e+02	0	0
3745938	2.557038e+00	5.346540e+01	6.106620e+01	0	0
3747891	2.558000e+00	6.963641e+01	-1.000324e+00	0	0
3749844	2.558000e+00	8.457141e+01	-4.457110e+01	0	0
3751797	2.558038e+00	9.397626e+01	-1.749686e+02	0	0
3753750	2.559000e+00	1.107352e+02	-1.419302e+02	0	0
3755703	2.559000e+00	6.240840e+01	-8.640146e+01	0	0
3757656	2.559000e+00	1.241701e+02	4.314862e+00	0	0
3759609	2.559038e+00	1.180415e+02	-1.539697e+00	0	0
3761563	2.560000e+00	1.327393e+02	7.180849e+00	0	0
3763516	2.560000e+00	1.266692e+02	1.815980e+02	0	0
3765469	2.560000e+00	1.132233e+02	1.118705e+02	0	0
3767422	2.560039e+00	1.618212e+02	3.854242e-02	0	0
3769375	2.561000e+00	1.610705e+02	-3.411608e+00	0	0
3771328	2.561000e+00	1.910389e+02	-1.830137e+02	0	0
3773281	2.561039e+00	1.706602e+02	-1.241363e+02	0	0
3775234	2.562000e+00	1.918918e+02	-8.990397e+01	0	0
3777188	2.562000e+00	2.022963e+02	2.901417e+00	0	0
3779141	2.562000e+00	2.117289e+02	-2.079850e+00	0	0
3781094	2.562040e+00	2.162327e+02	4.107406e+00	0	0
3783047	2.563000e+00	2.406706e+02	1.920504e+02	0	0
3785000	2.563000e+00	2.596049e+02	1.702967e+02	0	0
3786953	2.563040e+00	2.446794e+02	-3.534960e+00	0	0
3788906	2.564000e+00	2.735453e+02	-3.970612e-01	0	0
3790859	2.564000e+00	2.617723e+02	-1.180330e+02	0	0
3792813	2.564040e+00	2.850460e+02	-1.921236e+02	0	0
3794766	2.565000e+00	3.143414e+02	-1.209336e+02	0	0
3796719	2.565000e+00	3.075447e+02	1.646250e+00	0	0
3798672	2.565040e+00	3.237007e+02	-1.908731e+00	0	0
3800625	2.566000e+00	3.274619e+02	4.390388e+00	0	0
3802578	2.566000e+00	3.699414e+02	1.242389e+02	0	0
3804531	2.566000e+00	3.690928e+02	1.937874e+02	0	0
3806484	2.566000e+00	3.878988e+02	2.072053e+00	0	0
3808438	2.566041e+00	4.261735e+02	-8.867619e-02	0	0
3810391	2.567000e+00	4.058501e+02	-7.006218e+01	0	0
3812344	2.567000e+00	4.133975e+02	-1.951089e+02	0	0
3814297	2.567041e+00	3.972747e+02	-1.047357e+02	0	0
3816250	2.568000e+00	4.166395e+02	-1.020064e+01	0	0
3818203	2.568000e+00	4.319518e+02	-1.286305e+01	0	0
3820156	2.568000e+00	4.639416e+02	-1.011824e+01	0	0
3822109	2.568041e+00	4.892229e+02	1.043294e+02	0	0
3824063	2.569000e+00	4.669082e+02	1.729047e+02	0	0
3826016	2.569000e+00	5.037932e+02	8.938414e+01	0	0
3827969	2.569041e+00	5.052980e+02	-3.822577e+00	0	0
3829922	2.570000e+00	4.787736e+02	-4.077631e+01	0	0
3831875	2.570000e+00	4.922891e+02	-1.822617e+02	0	0
3833828	2.570000e+00	5.088004e+02	-1.357253e+02	0	0
3835781	2.570041e+00	4.881248e+02	-6.867262e+01	0	0
3837734	2.571000e+00	5.116855e+02	7.422866e+00	0	0
3839688	2.571000e+00	4.992584e+02	3.559574e+00	0	0
3841641	2.571042e+00	4.845473e+02	9.961913e+00	0	0
3843594	2.572000e+00	4.985685e+02	1.886152e+02	0	0
3845547	2.572000e+00	4.683543e+02	9.640174e+01	0	0
3847500	2.572000e+00	4.598036e+02	3.224464e+00	0	0
3849453	2.572042e+00	4.363253e+02	-1.475539e+00	0	0
3851406	2.573000e+00	3.982851e+02	-1.829018e+02	0	0
3853359	2.573000e+00	3.664607e+02	-1.509661e+02	0	0
3855313	2.573000e+00	3.272123e+02	-8.369709e+01	0	0
3857266	2.573043e+00	3.011463e+02	6.429181e+00	0	0
3859219	2.574000e+00	2.829245e+02	1.432957e+00	0	0
3861172	2.574000e+00	2.393354e+02	8.416915e+00	0	0
3863125	2.574043e+00	2.334308e+02	1.924097e+02	0	0
3865078	2.575000e+00	2.114679e+02	1.594800e+02	0	0
3867031	2.575000e+00	1.826933e+02	7.590121e-01	0	0
3868984	2.575000e+00	1.503735e+02	-4.964146e-01	0	0
3870938	2.575000e+00	1.396471e+02	-1.438630e+02	0	0
3872891	2.575043e+00	1.149599e+02	-1.844320e+02	0	0
3874844	2.576000e+00	8.533195e+01	-1.239506e+02	0	0
3876797	2.576000e+00	8.703013e+01	-2.407683e+00	0	0
3878750	2.576043e+00	6.175489e+01	1.365402e+00	0	0
3880703	2.577000e+00	2.496634e+01	4.266359e+00	0	0
3882656	2.577000e+00	1.939731e+01	1.280446e+02	0	0
3884609	2.577000e+00	5.148415e+01	1.840126e+02	0	0
3886563	2.577044e+00	3.756791e+01	-6.715581e+00	0	0
3888516	2.578000e+00	1.614001e+01	-2.029270e+00	0	0
3890469	2.578000e+00	-1.206070e+01	-6.597211e+01	0	0
3892422	2.578000e+00	-1.353497e+01	-1.963152e+02	0	0
3894375	2.578044e+00	-1.955243e+01	-1.077354e+02	0	0
3896328	2.579000e+00	-2.935360e+01	-2.003471e+01	0	0
3898281	2.579000e+00	-4.894190e+01	-9.743299e+00	0	0
3900234	2.579044e+00	-4.536814e+01	-5.575638e+00	0	0
3902188	2.580000e+00	-4.029006e+01	1.060072e+02	0	0
3904141	2.580000e+00	-2.552983e+01	1.783242e+02	0	0
3906094	2.580000e+00	-2.397208e+01	6.119801e+01	0	0
3908047	2.580044e+00	-2.080077e+01	-6.960292e+00	0	0
3910000	2.581000e+00	-3.414783e+01	-5.399439e+01	0	0
3911953	2.581000e+00	-4.514863e+01	-1.918198e+02	0	0
3913906	2.581000e+00	-5.833966e+01	-1.234132e+02	0	0
3915859	2.581044e+00	-7.395597e+01	-6.645051e+01	0	0
3917813	2.582000e+00	-5.897485e+01	2.082614e+00	0	0
3919766	2.582000e+00	-7.098127e+01	-6.088851e-01	0	0
3921719	2.582000e+00	-5.465969e+01	3.387811e+01	0	0
3923672	2.582045e+00	-7.766843e+01	1.903491e+02	0	0
3925625	2.583000e+00	-5.039668e+01	1.063722e+02	0	0
3927578	2.583000e+00	-4.888120e+01	-9.795574e-01	0	0
3929531	2.583000e+00	-5.747319e+01	-1.378503e+01	0	0
3931484	2.583045e+00	-6.652324e+01	-1.934016e+02	0	0
3933438	2.584000e+00	-6.971221e+01	-1.463238e+02	0	0
3935391	2.584000e+00	-5.358125e+01	-9.153248e+01	0	0
3937344	2.584000e+00	-3.974727e+01	-5.788898e-01	0	0
3939297	2.584000e+00	-4.852349e+01	-3.271750e+00	0	0
3941250	2.584046e+00	-3.601370e+01	7.588390e+00	0	0
3943203	2.585000e+00	-3.842166e+01	1.959596e+02	0	0
3945156	2.585000e+00	-5.191995e+01	1.483852e+02	0	0
3947109	2.585000e+00	-7.659179e+01	5.328979e+00	0	0
3949063	2.585046e+00	-6.368267e+01	4.386329e+00	0	0
3951016	2.586000e+00	-5.614867e+01	-1.374517e+02	0	0
3952969	2.586000e+00	-6.780478e+01	-1.742351e+02	0	0
3954922	2.586046e+00	-3.751244e+01	-1.301627e+02	0	0
3956875	2.587000e+00	-5.267268e+01	1.926074e+01	0	0
3958828	2.587000e+00	-6.460776e+01	1.033329e+01	0	0
3960781	2.587000e+00	-7.807276e+01	1.008120e+01	0	0
3962734	2.587000e+00	-6.829554e+01	1.299933e+02	0	0
3964688	2.587047e+00	-8.820074e+01	1.895215e+02	0	0
3966641	2.588000e+00	-6.852995e+01	6.095616e+00	0	0
3968594	2.588000e+00	-3.324058e+01	1.747115e-01	0	0
3970547	2.588000e+00	-5.426289e+01	-7.480808e+01	0	0
3972500	2.588047e+00	-7.274890e+01	-2.086634e+02	0	0
3974453	2.589000e+00	-5.324062e+01	-9.416374e+01	0	0
3976406	2.589000e+00	-7.100773e+01	-1.635257e+01	0	0
3978359	2.589000e+00	-7.050215e+01	-1.716594e+01	0	0
3980313	2.589047e+00	-5.945077e+01	-1.103020e+01	0	0
3982266	2.590000e+00	-6.312865e+01	8.757639e+01	0	0
3984219	2.590000e+00	-3.999600e+01	1.763111e+02	0	0
3986172	2.590047e+00	-2.468176e+01	5.654940e+01	0	0
3988125	2.590953e+00	-4.396123e+01	-4.946834e+00	0	0
3990078	2.590047e+00	-5.375588e+01	-3.571552e+01	0	0
3992031	2.591000e+00	-5.014848e+01	-1.841953e+02	0	0
3993984	2.591000e+00	-3.974858e+01	-1.248994e+02	0	0
3995938	2.591048e+00	-6.421982e+01	-6.561161e+01	0	0
3997891	2.592000e+00	-5.944190e+01	4.797144e+00	0	0
3999844	2.592000e+00	-6.004748e+01	3.968646e-02	0	0
4001797	2.592000e+00	-7.585762e+01	2.756148e+01	0	0
4003750	2.592048e+00	-6.597932e+01	1.846809e+02	0	0
4005703	2.593000e+00	-6.239630e+01	9.021044e+01	0	0
4007656	2.593000e+00	-3.750253e+01	-3.454983e-01	0	0
4009609	2.593000e+00	-3.286406e+01	-4.167380e+00	0	0
4011563	2.593000e+00	-4.984073e+01	-1.872092e+02	0	0
4013516	2.593049e+00	-5.527268e+01	-1.493705e+02	0	0
4015469	2.594000e+00	-6.687522e+01	-8.873522e+01	0	0
4017422	2.594000e+00	-8.836663e+01	2.202601e+00	0	0
4019375	2.594000e+00	-7.178085e+01	-1.683043e+00	0	0
4021328	2.594049e+00	-8.115392e+01	8.319054e+00	0	0
4023281	2.595000e+00	-8.117626e+01	1.914525e+02	0	0
4025234	2.595000e+00	-7.066267e+01	1.401342e+02	0	0
4027188	2.595000e+00	-5.942007e+01	5.942797e+00	0	0
4029141	2.595049e+00	-4.364684e+01	2.364411e+00	0	0
4031094	2.596000e+00	-4.981441e+01	-1.766416e+02	0	0
4033047	2.596000e+00	-5.751780e+01	-1.744860e+02	0	0
4035000	2.596000e+00	-4.176156e+01	-1.156068e+02	0	0
4036953	2.596049e+00	-4.371788e+01	6.187769e+00	0	0
4038906	2.597000e+00	-5.333227e+01	1.039671e+01	0	0
4040859	2.597000e+00	-6.942633e+01	1.316185e+01	0	0
4042813	2.597000e+00	-6.182949e+01	1.469971e+02	0	0
4044766	2.597000e+00	-6.341127e+01	1.857886e+02	0	0
4046719	2.597050e+00	-5.230584e+01	-5.642676e+00	0	0
4048672	2.598000e+00	-6.126038e+01	8.062858e-02	0	0
4050625	2.598000e+00	-6.833209e+01	-8.372472e+01	0	0
4052578	2.598000e+00	-6.718708e+01	-1.938062e+02	0	0
4054531	2.598000e+00	-7.535471e+01	-1.066152e+02	0	0
4056484	2.598050e+00	-6.705183e+01	-6.297556e+00	0	0
4058438	2.599000e+00	-6.144827e+01	-9.869792e+00	0	0
4060391	2.599000e+00	-5.258287e+01	-3.283240e+00	0	0
4062344	2.599000e+00	-7.036481e+01	1.124171e+02	0	0
4064297	2.599050e+00	-6.181633e+01	1.752489e+02	0	0
4066250	2.600000e+00	-6.194644e+01	5.945251e+01	0	0
4068203	2.600000e+00	-5.907221e+01	-2.009775e+00	0	0
4070156	2.600000e+00	-6.407187e+01	-5.550593e+01	0	0
4072109	2.600000e+00	-5.505775e+01	-1.734472e+02	0	0
4074063	2.600051e+00	-7.457415e+01	-1.232419e+02	0	0
4076016	2.601000e+00	-7.153988e+01	-7.564119e+01	0	0
4077969	2.601000e+00	-7.428902e+01	6.172811e+00	0	0
4079922	2.601051e+00	-8.647126e+01	2.713480e+00	0	0
4081875	2.602000e+00	-6.948255e+01	3.503173e+01	0	0
4083828	2.602000e+00	-6.026032e+01	1.812199e+02	0	0
4085781	2.602000e+00	-5.391782e+01	8.845767e+01	0	0
4087734	2.602000e+00	-5.171592e+01	3.483888e+00	0	0
4089688	2.602052e+00	-5.178726e+01	-2.765537e+01	0	0
4091641	2.603000e+00	-4.970086e+01	-1.731667e+02	0	0
4093594	2.603000e+00	-5.123658e+01	-1.476426e+02	0	0
4095547	2.603000e+00	-8.401199e+01	-9.663296e+01	0	0
4097500	2.603000e+00	-8.701992e+01	1.045906e+01	0	0
4099453	2.603052e+00	-9.416747e+01	4.400976e+00	0	0
4101406	2.604000e+00	-8.510614e+01	1.303256e+01	0	0
4103359	2.604000e+00	-8.047438e+01	1.898712e+02	0	0
4105313	2.604000e+00	-7.584078e+01	1.373372e+02	0	0
4107266	2.604000e+00	-7.827163e+01	2.106555e+00	0	0
4109219	2.604052e+00	-7.153168e+01	-2.189483e+00	0	0
4111172	2.605000e+00	-5.405191e+01	-1.759500e+02	0	0
4113125	2.605000e+00	-7.752441e+01	-1.809449e+02	0	0
4115078	2.605000e+00	-8.670247e+01	-1.200408e+02	0	0
4117031	2.605052e+00	-1.020751e+02	4.985112e+00	0	0
4118984	2.606000e+00	-1.190632e+02	-2.487313e-01	0	0
4120938	2.606000e+00	-1.110864e+02	5.330338e+00	0	0
4122891	2.606000e+00	-1.079171e+02	1.439950e+02	0	0
4124844	2.606000e+00	-9.239538e+01	1.808663e+02	0	0
4126797	2.606053e+00	-8.356558e+01	-9.096831e+00	0	0
4128750	2.607000e+00	-6.228759e+01	-4.166672e+00	0	0
4130703	2.607000e+00	-4.397828e+01	-6.889411e+01	0	0
4132656	2.607000e+00	-6.291688e+01	-1.999518e+02	0	0
4134609	2.607000e+00	-7.386197e+01	-1.017328e+02	0	0
4136563	2.607053e+00	-8.353496e+01	-1.394668e+01	0	0
4138516	2.608000e+00	-9.556811e+01	-1.637659e+01	0	0
4140469	2.608000e+00	-1.021957e+02	-9.072546e+00	0	0
4142422	2.608000e+00	-1.036239e+02	1.066011e+02	0	0
4144375	2.608000e+00	-9.781203e+01	1.681592e+02	0	0
4146328	2.608053e+00	-8.350521e+01	4.250250e+01	0	0
4148281	2.609000e+00	-7.880754e+01	-5.712218e+00	0	0
4150234	2.609000e+00	-7.823993e+01	-4.994447e+01	0	0
4152188	2.609000e+00	-7.956398e+01	-1.748198e+02	0	0
4154141	2.609054e+00	-7.662013e+01	-1.081690e+02	0	0
4156094	2.610000e+00	-8.410447e+01	-4.998834e+01	0	0
4158047	2.610000e+00	-9.924322e+01	2.307997e+00	0	0
4160000	2.610000e+00	-1.107585e+02	1.865176e-01	0	0
4161953	2.610000e+00	-1.122886e+02	3.343420e+01	0	0
4163906	2.610054e+00	-1.061350e+02	1.755408e+02	0	0
4165859	2.611000e+00	-9.480325e+01	9.573930e+01	0	0
4167813	2.611000e+00	-9.775749e+01	8.978921e-01	0	0
4169766	2.611000e+00	-9.599295e+01	-2.613021e+01	0	0
4171719	2.611055e+00	-8.643115e+01	-1.726817e+02	0	0
4173672	2.612000e+00	-7.870302e+01	-1.545619e+02	0	0
4175625	2.612000e+00	-7.481436e+01	-9.085524e+01	0	0
4177578	2.612000e+00	-7.028776e+01	6.829253e+00	0	0
4179531	2.612055e+00	-8.925702e+01	1.699354e-01	0	0
4181484	2.613000e+00	-1.035860e+02	8.103444e+00	0	0
4183438	2.613000e+00	-8.574218e+01	1.834752e+02	0	0
4185391	2.613000e+00	-7.637357e+01	1.388284e+02	0	0
4187344	2.613000e+00	-4.039900e+01	-4.436015e+00	0	0
4189297	2.613000e+00	-9.266493e+00	-8.427444e+00	0	0
4191250	2.613056e+00	3.064558e+00	-1.911238e+02	0	0
4193203	2.614000e+00	5.506323e-01	-1.652744e+02	0	0
4195156	2.614000e+00	1.703197e+01	-1.137272e+02	0	0
4197109	2.614000e+00	2.794665e+01	3.321407e-01	0	0
4199063	2.614056e+00	1.773690e+01	-6.018489e+00	0	0
4201016	2.615000e+00	2.748075e+01	2.776556e+00	0	0
4202969	2.615000e+00	4.759730e+01	1.771814e+02	0	0
4204922	2.615000e+00	4.566254e+01	1.781400e+02	0	0
4206875	2.615000e+00	6.692917e+01	-8.796914e+00	0	0
4208828	2.615056e+00	8.318106e+01	-3.106621e+00	0	0
4210781	2.616000e+00	9.063916e+01	-8.330726e+01	0	0
4212734	2.616000e+00	7.591460e+01	-1.945352e+02	0	0
4214688	2.616000e+00	8.925253e+01	-1.072974e+02	0	0
4216641	2.616057e+00	9.098115e+01	2.026337e-01	0	0
4218594	2.617000e+00	7.620119e+01	-4.103559e+00	0	0
4220547	2.617000e+00	1.001938e+02	4.538004e-01	0	0
4222500	2.617000e+00	9.107479e+01	1.084035e+02	0	0
4224453	2.617000e+00	1.165723e+02	1.808566e+02	0	0
4226406	2.617057e+00	1.325096e+02	3.056345e+01	0	0
4228359	2.618000e+00	1.237455e+02	-3.107601e+00	0	0
4230313	2.618000e+00	1.248644e+02	-7.970008e+01	0	0
4232266	2.618000e+00	1.036993e+02	-1.850906e+02	0	0
4234219	2.618000e+00	9.868174e+01	-1.028914e+02	0	0
4236172	2.618058e+00	9.736390e+01	-5.290004e+01	0	0
4238125	2.619000e+00	7.957252e+01	4.196790e-01	0	0
4240078	2.619000e+00	7.809094e+01	-9.490941e-01	0	0
4242031	2.619000e+00	7.730807e+01	5.551071e+01	0	0
4243984	2.619000e+00	9.506716e+01	1.781725e+02	0	0
4245938	2.619058e+00	6.841908e+01	8.978041e+01	0	0
4247891	2.620000e+00	5.080660e+01	-1.901407e+00	0	0
4249844	2.620000e+00	4.098793e+01	-1.621718e+01	0	0
4251797	2.620000e+00	1.795104e+01	-1.794158e+02	0	0
4253750	2.620058e+00	-1.068393e+01	-1.401520e+02	0	0
4255703	2.621000e+00	-2.065177e+01	-7.485912e+01	0	0
4257656	2.621000e+00	-4.561395e+01	1.528865e+00	0	0
4259609	2.621000e+00	-6.558690e+01	-3.605044e+00	0	0
4261563	2.621000e+00	-8.906688e+01	5.880914e+00	0	0
4263516	2.621000e+00	-1.186791e+02	1.735760e+02	0	0
4265469	2.621059e+00	-1.283371e+02	1.215849e+02	0	0
4267422	2.622000e+00	-1.301297e+02	-3.086687e+00	0	0
4269375	2.622000e+00	-1.353573e+02	-7.205905e+00	0	0
4271328	2.622000e+00	-1.467368e+02	-1.771380e+02	0	0
4273281	2.622059e+00	-1.577041e+02	-1.638114e+02	0	0
4275234	2.623000e+00	-1.699665e+02	-1.026495e+02	0	0
4277188	2.623000e+00	-1.682252e+02	2.380520e+00	0	0
4279141	2.623000e+00	-1.732254e+02	-3.945634e+00	0	0
4281094	2.623000e+00	-1.555325e+02	5.440368e+00	0	0
4283047	2.623000e+00	-1.589088e+02	1.790882e+02	0	0
4285000	2.623060e+00	-1.627561e+02	1.684768e+02	0	0
4286953	2.624000e+00	-1.806204e+02	-6.641454e+00	0	0
4288906	2.624000e+00	-1.830362e+02	-1.580642e+00	0	0
4290859	2.624060e+00	-1.845446e+02	-8.261871e+01	0	0
4292813	2.624940e+00	-1.925493e+02	-1.859812e+02	0	0
4294766	2.624060e+00	-2.013905e+02	-1.107323e+02	0	0
4296719	2.625000e+00	-1.987053e+02	2.671092e-01	0	0
4298672	2.625060e+00	-2.040288e+02	-2.955804e+00	0	0
4300625	2.625940e+00	-2.053798e+02	1.610658e+00	0	0
4302578	2.625060e+00	-1.950292e+02	1.082794e+02	0	0
4304531	2.626000e+00	-1.882024e+02	1.793702e+02	0	0
4306484	2.626000e+00	-1.743553e+02	1.464597e+01	0	0
4308438	2.626000e+00	-1.731118e+02	-1.622416e+00	0	0
4310391	2.626061e+00	-1.937576e+02	-7.103211e+01	0	0
4312344	2.627000e+00	-2.050048e+02	-1.872656e+02	0	0
4314297	2.627000e+00	-1.943909e+02	-1.084113e+02	0	0
4316250	2.627000e+00	-1.978443e+02	-4.171444e+01	0	0
4318203	2.627061e+00	-1.932116e+02	-7.404555e-01	0	0
4320156	2.628000e+00	-2.064386e+02	-1.693724e-01	0	0
4322109	2.628000e+00	-2.189089e+02	7.676560e+01	0	0
4324063	2.628000e+00	-1.994879e+02	1.776435e+02	0	0
4326016	2.628000e+00	-1.952506e+02	8.055303e+01	0	0
4327969	2.628000e+00	-2.167955e+02	-1.463987e+00	0	0
4329922	2.628062e+00	-1.935874e+02	-2.568750e+01	0	0
4331875	2.629000e+00	-1.882463e+02	-1.782837e+02	0	0
4333828	2.629000e+00	-2.046969e+02	-1.442999e+02	0	0
4335781	2.629000e+00	-2.013829e+02	-7.894069e+01	0	0
4337734	2.629062e+00	-2.417199e+02	3.337769e+00	0	0
4339688	2.630000e+00	-2.809222e+02	-2.400306e+00	0	0
4341641	2.630000e+00	-2.920570e+02	8.073090e+00	0	0
4343594	2.630000e+00	-2.667418e+02	1.747539e+02	0	0
4345547	2.630062e+00	-1.998765e+02	1.076244e+02	0	0
4347500	2.631000e+00	-1.011552e+02	-1.291498e+00	0	0
4349453	2.631000e+00	-2.553152e+01	-6.572905e+00	0	0
4351406	2.631000e+00	5.247317e+01	-1.749805e+02	0	0
4353359	2.631000e+00	1.241452e+02	-1.516715e+02	0	0
4355313	2.631063e+00	2.631825e+02	-1.001226e+02	0	0
4357266	2.632000e+00	4.952227e+02	3.021597e+00	0	0
4359219	2.632000e+00	7.346512e+02	-3.594864e+00	0	0
4361172	2.632000e+00	9.698922e+02	6.500377e+00	0	0
4363125	2.632000e+00	1.221793e+03	1.797486e+02	0	0
4365078	2.632063e+00	1.485160e+03	1.659140e+02	0	0
4367031	2.633000e+00	1.676136e+03	-8.657306e+00	0	0
4368984	2.633000e+00	1.664666e+03	-4.586395e+00	0	0
4370938	2.633000e+00	1.560224e+03	-9.821647e+01	0	0
4372891	2.633000e+00	1.321785e+03	-1.832671e+02	0	0
4374844	2.633064e+00	9.564981e+02	-1.154840e+02	0	0
4376797	2.634000e+00	7.358392e+02	4.000679e+00	0	0
4378750	2.634000e+00	5.372403e+02	-1.671709e+00	0	0
4380703	2.634000e+00	3.978973e+02	5.858017e+00	0	0
4382656	2.634000e+00	1.750156e+02	1.191589e+02	0	0
4384609	2.634064e+00	-1.238326e+02	1.854322e+02	0	0
4386563	2.635000e+00	-2.882633e+02	2.622745e+01	0	0
4388516	2.635000e+00	-3.207740e+02	-2.900912e+00	0	0
4390469	2.635000e+00	-3.484236e+02	-7.419641e+01	0	0
4392422	2.635000e+00	-3.377626e+02	-1.879723e+02	0	0
4394375	2.635065e+00	-3.178542e+02	-9.734857e+01	0	0
4396328	2.636000e+00	-3.112596e+02	-2.186472e+01	0	0
4398281	2.636000e+00	-2.710122e+02	-9.034711e+00	0	0
4400234	2.636000e+00	-2.378697e+02	-4.569995e+00	0	0
4402188	2.636000e+00	-1.952900e+02	7.979948e+01	0	0
4404141	2.636000e+00	-1.643032e+02	1.674364e+02	0	0
4406094	2.636065e+00	-1.286540e+02	6.695695e+01	0	0
4408047	2.637000e+00	-1.271944e+02	6.431740e-01	0	0
4410000	2.637000e+00	-1.491104e+02	-2.480696e+01	0	0
4411953	2.637000e+00	-1.691990e+02	-1.683413e+02	0	0
4413906	2.637065e+00	-1.665508e+02	-1.462115e+02	0	0
4415859	2.638000e+00	-1.667043e+02	-8.388990e+01	0	0
4417813	2.638000e+00	-1.821432e+02	7.338670e+00	0	0
