time	gsr	ecg	emg_trapezius	emg_corrugator	emg_zygomaticus
391	2.191000e+00	-1.249458e+02	2.149954e+01	0	0
2344	2.191000e+00	-1.386022e+02	6.185596e+01	0	0
4297	2.191000e+00	-1.280557e+02	7.818769e+00	0	0
6250	2.191000e+00	-1.148438e+02	5.765921e-01	0	0
8203	2.191000e+00	-1.200548e+02	-1.385823e+01	0	0
10156	2.191000e+00	-1.244487e+02	-6.489208e+01	0	0
12109	2.191000e+00	-1.167775e+02	-1.066955e+01	0	0
14063	2.191000e+00	-1.331050e+02	-1.722140e-02	0	0
16016	2.191000e+00	-1.351946e+02	7.772475e-01	0	0
17969	2.191000e+00	-1.394108e+02	-3.092013e+00	0	0
19922	2.191000e+00	-1.507267e+02	1.209462e+01	0	0
21875	2.191000e+00	-1.462818e+02	5.943990e+01	0	0
23828	2.191000e+00	-1.362608e+02	4.358919e+00	0	0
25781	2.191000e+00	-1.294625e+02	3.428899e+00	0	0
27734	2.191000e+00	-1.277939e+02	-8.257128e+00	0	0
29688	2.191000e+00	-1.260543e+02	-6.720897e+01	0	0
31641	2.191000e+00	-1.339592e+02	-4.817449e+01	0	0
33594	2.191000e+00	-1.377413e+02	6.836584e-01	0	0
35547	2.191000e+00	-1.375165e+02	-4.301004e-02	0	0
37500	2.190798e+00	-1.396975e+02	-2.618693e+00	0	0
39453	2.190000e+00	-1.456223e+02	1.105078e+01	0	0
41406	2.190202e+00	-1.309439e+02	6.856369e+01	0	0
43359	2.190798e+00	-1.192851e+02	3.323033e+01	0	0
45313	2.190000e+00	-1.150569e+02	-2.298640e+00	0	0
47266	2.190000e+00	-1.134861e+02	-1.925767e+00	0	0
49219	2.190000e+00	-1.192261e+02	-4.010650e+01	0	0
51172	2.190000e+00	-1.219286e+02	-6.631577e+01	0	0
53125	2.190000e+00	-1.188442e+02	-1.763104e+01	0	0
55078	2.190000e+00	-1.204232e+02	1.284452e+00	0	0
57031	2.190000e+00	-1.233159e+02	-9.556483e-01	0	0
58984	2.190000e+00	-1.457949e+02	2.805696e+00	0	0
60938	2.190000e+00	-1.282164e+02	4.509953e+01	0	0
62891	2.190000e+00	-1.322673e+02	6.514953e+01	0	0
64844	2.190000e+00	-1.272281e+02	-8.136451e+00	0	0
66797	2.190000e+00	-1.099999e+02	5.043508e+00	0	0
68750	2.190000e+00	-1.141139e+02	-1.523715e+01	0	0
70703	2.190000e+00	-1.184121e+02	-7.660302e+01	0	0
72656	2.190000e+00	-1.237813e+02	-3.047420e+01	0	0
74609	2.190000e+00	-1.124303e+02	2.228478e+00	0	0
76563	2.190000e+00	-1.218850e+02	3.018720e-01	0	0
78516	2.190000e+00	-1.208965e+02	-3.439176e+00	0	0
80469	2.190000e+00	-1.198188e+02	1.402208e+01	0	0
82422	2.190000e+00	-1.147902e+02	6.148185e+01	0	0
84375	2.190000e+00	-1.102883e+02	-8.151004e+00	0	0
86328	2.190000e+00	-9.374365e+01	4.754009e+00	0	0
88281	2.190000e+00	-1.036852e+02	-1.138593e+01	0	0
90234	2.190000e+00	-1.129699e+02	-6.436298e+01	0	0
92188	2.190000e+00	-1.157427e+02	-2.883071e+01	0	0
94141	2.190000e+00	-1.159716e+02	2.290136e+00	0	0
96094	2.190000e+00	-1.202913e+02	1.290697e-01	0	0
98047	2.190000e+00	-1.165050e+02	-2.807252e+00	0	0
100000	2.190000e+00	-1.173733e+02	1.158482e+01	0	0
101953	2.190000e+00	-1.036224e+02	5.373879e+01	0	0
103906	2.190000e+00	-9.399249e+01	-7.433458e-01	0	0
105859	2.189795e+00	-1.014334e+02	3.564999e+00	0	0
107813	2.189000e+00	-9.392755e+01	-1.060382e+01	0	0
109766	2.189000e+00	-9.083672e+01	-5.827466e+01	0	0
111719	2.189000e+00	-1.032786e+02	-2.795631e+01	0	0
113672	2.189000e+00	-9.977165e+01	-1.040250e+01	0	0
115625	2.189000e+00	-1.125249e+02	1.489346e+00	0	0
117578	2.189000e+00	-1.032641e+02	-2.346657e+00	0	0
119531	2.189000e+00	-1.055847e+02	8.343913e+00	0	0
121484	2.189000e+00	-1.112889e+02	6.259385e+01	0	0
123438	2.189000e+00	-9.622146e+01	4.815166e+01	0	0
125391	2.189000e+00	-1.118717e+02	-3.458341e+00	0	0
127344	2.189000e+00	-1.118017e+02	-4.895009e+00	0	0
129297	2.189000e+00	-1.071499e+02	-4.977918e+01	0	0
131250	2.189000e+00	-1.046717e+02	-6.387625e+01	0	0
133203	2.189000e+00	-1.145656e+02	-3.916422e+01	0	0
135156	2.189000e+00	-1.263134e+02	4.877908e+00	0	0
137109	2.189000e+00	-1.310508e+02	-1.244680e+00	0	0
139063	2.189000e+00	-1.320819e+02	4.469618e+00	0	0
141016	2.189000e+00	-1.346356e+02	4.687065e+01	0	0
142969	2.189000e+00	-1.222142e+02	6.327991e+01	0	0
144922	2.189000e+00	-1.234700e+02	-8.183273e+00	0	0
146875	2.189000e+00	-1.125066e+02	5.793604e+00	0	0
148828	2.189000e+00	-1.224772e+02	-1.617755e+01	0	0
150781	2.189000e+00	-1.321444e+02	-7.340260e+01	0	0
152734	2.189000e+00	-1.374088e+02	-1.007143e+01	0	0
154688	2.189000e+00	-1.385201e+02	-8.027270e+00	0	0
156641	2.189000e+00	-1.322646e+02	-7.185834e+00	0	0
158594	2.189000e+00	-1.389602e+02	-4.574015e+00	0	0
160547	2.188793e+00	-1.371266e+02	3.252444e+01	0	0
162500	2.188207e+00	-1.290358e+02	6.015283e+01	0	0
164453	2.189000e+00	-1.278956e+02	-7.934073e+00	0	0
166406	2.188793e+00	-1.151579e+02	5.095693e+00	0	0
168359	2.188207e+00	-1.214023e+02	-1.315813e+01	0	0
170313	2.189000e+00	-1.252767e+02	-6.879447e+01	0	0
172266	2.188792e+00	-1.317357e+02	-2.220824e+01	0	0
174219	2.188000e+00	-1.529826e+02	5.089817e+00	0	0
176172	2.188000e+00	-1.531705e+02	5.097527e+00	0	0
178125	2.188000e+00	-1.579403e+02	1.474976e+00	0	0
180078	2.188000e+00	-1.597330e+02	1.945149e+01	0	0
182031	2.188000e+00	-1.592225e+02	6.612827e+01	0	0
183984	2.188000e+00	-1.442481e+02	-6.783388e+00	0	0
185938	2.188000e+00	-1.443004e+02	4.888718e+00	0	0
187891	2.188000e+00	-1.383316e+02	-1.170581e+01	0	0
189844	2.188000e+00	-1.443684e+02	-7.288917e+01	0	0
191797	2.188000e+00	-1.530625e+02	-4.524487e+01	0	0
193750	2.188000e+00	-1.516362e+02	-2.628921e+00	0	0
195703	2.188000e+00	-1.465142e+02	1.720402e+00	0	0
197656	2.188000e+00	-1.468152e+02	-3.507318e+00	0	0
199609	2.188000e+00	-1.390912e+02	1.005136e+01	0	0
201563	2.188000e+00	-1.326491e+02	7.038176e+01	0	0
203516	2.188000e+00	-1.454123e+02	3.607937e+01	0	0
205469	2.188000e+00	-1.427581e+02	-1.022222e+00	0	0
207422	2.188000e+00	-1.318959e+02	-8.794439e+00	0	0
209375	2.188000e+00	-1.315605e+02	-6.788001e+01	0	0
211328	2.188000e+00	-1.632455e+02	-6.386441e+01	0	0
213281	2.188000e+00	-1.486716e+02	-2.663925e+01	0	0
215234	2.188000e+00	-1.504752e+02	3.390445e+00	0	0
217188	2.188000e+00	-1.656500e+02	-2.798564e-01	0	0
219141	2.188000e+00	-1.575209e+02	4.879074e+00	0	0
221094	2.188000e+00	-1.549933e+02	4.944298e+01	0	0
223047	2.188000e+00	-1.583875e+02	6.292095e+01	0	0
225000	2.188000e+00	-1.569805e+02	-8.096031e+00	0	0
226953	2.188000e+00	-1.397683e+02	5.382066e+00	0	0
228906	2.188000e+00	-1.390055e+02	-1.425344e+01	0	0
230859	2.188000e+00	-1.427169e+02	-7.557193e+01	0	0
232813	2.188000e+00	-1.436618e+02	-2.907042e+01	0	0
234766	2.187790e+00	-1.452730e+02	1.298733e+00	0	0
236719	2.187210e+00	-1.450529e+02	4.398529e-01	0	0
238672	2.187790e+00	-1.416359e+02	-3.643450e+00	0	0
240625	2.187000e+00	-1.343186e+02	1.459986e+01	0	0
242578	2.187000e+00	-1.102768e+02	6.153649e+01	0	0
244531	2.187000e+00	-7.820202e+01	-8.504944e+00	0	0
246484	2.187000e+00	-4.330049e+01	5.356352e+00	0	0
248438	2.187000e+00	-3.153060e+01	-1.180957e+01	0	0
250391	2.187000e+00	-1.503585e+01	-6.418588e+01	0	0
252344	2.187000e+00	-1.555471e+01	-1.973415e+01	0	0
254297	2.187000e+00	-2.032174e+01	1.159500e+00	0	0
256250	2.187000e+00	-2.076173e+01	4.507210e-01	0	0
258203	2.187000e+00	-3.591657e+01	-3.142431e+00	0	0
260156	2.187000e+00	-3.021932e+01	1.253013e+01	0	0
262109	2.187000e+00	-1.771565e+01	6.262292e+01	0	0
264063	2.187000e+00	8.316882e+00	1.210195e+01	0	0
266016	2.187000e+00	1.561797e+01	1.839487e+00	0	0
267969	2.187000e+00	2.784427e+01	-1.448908e+01	0	0
269922	2.187000e+00	3.650444e+01	-6.686363e+01	0	0
271875	2.187000e+00	4.091190e+01	-2.305268e+01	0	0
273828	2.187000e+00	3.533366e+01	-2.001421e+00	0	0
275781	2.187000e+00	3.483665e+01	-1.248739e+00	0	0
277734	2.187000e+00	5.577502e+01	-2.791150e+00	0	0
279688	2.187000e+00	6.356422e+01	1.128130e+01	0	0
281641	2.187000e+00	9.051671e+01	6.485094e+01	0	0
283594	2.187000e+00	8.861175e+01	2.777824e+01	0	0
285547	2.187000e+00	9.359606e+01	-1.900111e-02	0	0
287500	2.187000e+00	8.148481e+01	-9.468111e+00	0	0
289453	2.187000e+00	8.267289e+01	-6.465812e+01	0	0
291406	2.187000e+00	7.535265e+01	-5.302754e+01	0	0
293359	2.187000e+00	7.021403e+01	-2.085343e+01	0	0
295313	2.187000e+00	5.430348e+01	8.548816e+00	0	0
297266	2.187000e+00	4.051402e+01	-4.082203e-01	0	0
299219	2.187000e+00	3.447482e+01	8.482263e+00	0	0
301172	2.187000e+00	3.663365e+01	6.638519e+01	0	0
303125	2.186787e+00	3.615231e+01	5.697448e+01	0	0
305078	2.186000e+00	1.735683e+01	-7.718863e+00	0	0
307031	2.186000e+00	-1.134228e+00	6.791988e-01	0	0
308984	2.186000e+00	-3.215068e+01	-2.083090e+01	0	0
310938	2.186000e+00	-5.406554e+01	-7.717106e+01	0	0
312891	2.186000e+00	-7.527608e+01	-2.315175e+01	0	0
314844	2.186000e+00	-8.963817e+01	-6.193095e-01	0	0
316797	2.186000e+00	-1.314995e+02	4.473506e-01	0	0
318750	2.186000e+00	-1.268042e+02	-3.458977e+00	0	0
320703	2.186000e+00	-1.386498e+02	1.671552e+01	0	0
322656	2.186000e+00	-1.407888e+02	6.271533e+01	0	0
324609	2.186000e+00	-1.372159e+02	-6.556074e+00	0	0
326563	2.186000e+00	-1.481765e+02	8.394235e+00	0	0
328516	2.186000e+00	-1.591476e+02	-1.117685e+01	0	0
330469	2.186000e+00	-1.525828e+02	-6.742439e+01	0	0
332422	2.186000e+00	-1.727509e+02	-2.419032e+01	0	0
334375	2.186000e+00	-1.827354e+02	1.665551e+00	0	0
336328	2.186000e+00	-1.894967e+02	3.836765e-01	0	0
338281	2.186000e+00	-1.928894e+02	-2.812832e+00	0	0
340234	2.186000e+00	-1.765675e+02	1.416851e+01	0	0
342188	2.186000e+00	-1.863526e+02	5.933886e+01	0	0
344141	2.186000e+00	-1.783827e+02	9.928815e-01	0	0
346094	2.186000e+00	-1.754721e+02	4.400019e+00	0	0
348047	2.186000e+00	-1.812822e+02	-1.077709e+01	0	0
350000	2.186000e+00	-1.808239e+02	-6.566132e+01	0	0
351953	2.186000e+00	-2.072576e+02	-4.142256e+01	0	0
353906	2.186000e+00	-2.072126e+02	-6.240931e+00	0	0
355859	2.186000e+00	-2.153803e+02	9.494564e-01	0	0
357813	2.186000e+00	-2.286696e+02	-3.118254e+00	0	0
359766	2.185785e+00	-2.158282e+02	1.182654e+01	0	0
361719	2.185215e+00	-2.160758e+02	6.177515e+01	0	0
363672	2.186000e+00	-2.071521e+02	1.917606e+01	0	0
365625	2.185785e+00	-2.095850e+02	1.334168e+00	0	0
367578	2.185000e+00	-1.968583e+02	-1.114375e+01	0	0
369531	2.185000e+00	-2.037107e+02	-6.425613e+01	0	0
371484	2.185000e+00	-2.065132e+02	-4.036069e+01	0	0
373438	2.185000e+00	-2.120157e+02	-2.075924e+01	0	0
375391	2.185000e+00	-2.114446e+02	2.613408e+00	0	0
377344	2.185000e+00	-2.172139e+02	-2.675052e+00	0	0
379297	2.185000e+00	-2.279030e+02	8.296369e+00	0	0
381250	2.185000e+00	-2.197467e+02	6.237452e+01	0	0
383203	2.185000e+00	-2.124321e+02	5.299418e+01	0	0
385156	2.185000e+00	-2.169436e+02	-6.932499e+00	0	0
387109	2.185000e+00	-2.033112e+02	4.320616e+00	0	0
389063	2.185000e+00	-2.118762e+02	-1.475640e+01	0	0
391016	2.185000e+00	-2.051357e+02	-6.715825e+01	0	0
392969	2.185000e+00	-2.135482e+02	-1.653333e+01	0	0
394922	2.185000e+00	-2.396400e+02	-7.564985e-01	0	0
396875	2.185000e+00	-2.697237e+02	-7.376895e-01	0	0
398828	2.185000e+00	-2.820394e+02	-5.275501e+00	0	0
400781	2.185000e+00	-2.787037e+02	1.487586e+01	0	0
402734	2.185000e+00	-2.520768e+02	6.161177e+01	0	0
404688	2.185000e+00	-1.737447e+02	-8.851594e+00	0	0
406641	2.185000e+00	-9.641274e+01	4.363018e+00	0	0
408594	2.185000e+00	1.826425e+01	-1.630185e+01	0	0
410547	2.185000e+00	9.643208e+01	-6.567769e+01	0	0
412500	2.185000e+00	2.143170e+02	-9.709520e+00	0	0
414453	2.185000e+00	4.151471e+02	-1.590686e+00	0	0
416406	2.185000e+00	6.483274e+02	-4.067000e-01	0	0
418359	2.185000e+00	8.964521e+02	-5.273940e+00	0	0
420313	2.185000e+00	1.162335e+03	1.025479e+01	0	0
422266	2.185000e+00	1.402668e+03	6.029113e+01	0	0
424219	2.185000e+00	1.661253e+03	1.149276e+01	0	0
426172	2.185000e+00	1.772922e+03	2.087988e+00	0	0
428125	2.184782e+00	1.664524e+03	-1.215665e+01	0	0
430078	2.184218e+00	1.527851e+03	-6.485068e+01	0	0
432031	2.184782e+00	1.236853e+03	-2.824660e+01	0	0
433984	2.184218e+00	9.527673e+02	-4.248305e+00	0	0
435938	2.185000e+00	7.638461e+02	1.023358e+00	0	0
437891	2.184781e+00	5.982464e+02	-3.555631e+00	0	0
439844	2.184000e+00	4.270700e+02	1.347748e+01	0	0
441797	2.184000e+00	1.645837e+02	6.323245e+01	0	0
443750	2.184000e+00	-7.552904e+01	1.057033e+01	0	0
445703	2.184000e+00	-1.971491e+02	1.811144e+00	0	0
447656	2.184000e+00	-2.612236e+02	-8.973344e+00	0	0
449609	2.184000e+00	-3.101142e+02	-6.304850e+01	0	0
451563	2.184000e+00	-3.146778e+02	-6.089053e+01	0	0
453516	2.184000e+00	-2.977044e+02	-2.018416e+01	0	0
455469	2.184000e+00	-2.907660e+02	2.445305e+00	0	0
457422	2.184000e+00	-2.612363e+02	-2.059842e+00	0	0
459375	2.184000e+00	-2.105349e+02	9.246384e+00	0	0
461328	2.184000e+00	-1.966331e+02	6.583134e+01	0	0
463281	2.184000e+00	-1.652402e+02	5.776780e+01	0	0
465234	2.184000e+00	-1.562860e+02	-5.346138e+00	0	0
467188	2.184000e+00	-1.310723e+02	4.445834e+00	0	0
469141	2.184000e+00	-1.248799e+02	-2.196302e+01	0	0
471094	2.184000e+00	-1.382349e+02	-6.868657e+01	0	0
473047	2.184000e+00	-1.544757e+02	-2.250276e+01	0	0
475000	2.184000e+00	-1.605107e+02	3.448645e+00	0	0
476953	2.184000e+00	-1.528347e+02	2.290868e+00	0	0
478906	2.184000e+00	-1.752226e+02	-2.293621e+00	0	0
480859	2.184000e+00	-1.736137e+02	1.777529e+01	0	0
482813	2.184000e+00	-1.709461e+02	6.541014e+01	0	0
484766	2.184000e+00	-1.565771e+02	-7.529823e+00	0	0
486719	2.184000e+00	-1.528516e+02	6.946636e+00	0	0
488672	2.184000e+00	-1.501959e+02	-1.258025e+01	0	0
490625	2.184000e+00	-1.571954e+02	-7.246360e+01	0	0
492578	2.184000e+00	-1.597713e+02	-3.360746e+01	0	0
494531	2.183780e+00	-1.632459e+02	3.910147e+00	0	0
496484	2.183000e+00	-1.689303e+02	7.924378e-01	0	0
498438	2.183000e+00	-1.612952e+02	-3.168602e+00	0	0
500391	2.183221e+00	-1.662292e+02	1.509640e+01	0	0
502344	2.183779e+00	-1.666336e+02	6.316239e+01	0	0
504297	2.183000e+00	-1.463836e+02	-3.159121e-01	0	0
506250	2.183000e+00	-1.439426e+02	4.237953e+00	0	0
508203	2.183000e+00	-1.376281e+02	-1.343063e+01	0	0
510156	2.183000e+00	-1.438395e+02	-7.033788e+01	0	0
512109	2.183000e+00	-1.486038e+02	-3.782445e+01	0	0
514063	2.183000e+00	-1.474493e+02	-1.177742e+01	0	0
516016	2.183000e+00	-1.504670e+02	1.832225e+00	0	0
517969	2.183000e+00	-1.450534e+02	-3.717595e+00	0	0
519922	2.183000e+00	-1.403021e+02	1.328025e+01	0	0
521875	2.183000e+00	-1.418054e+02	7.026864e+01	0	0
523828	2.183000e+00	-1.259014e+02	2.699696e+01	0	0
525781	2.183000e+00	-1.183893e+02	8.143882e-01	0	0
527734	2.183000e+00	-1.250681e+02	-1.283939e+01	0	0
529688	2.183000e+00	-1.181462e+02	-6.945025e+01	0	0
531641	2.183000e+00	-1.245962e+02	-3.297712e+01	0	0
533594	2.183000e+00	-1.291504e+02	-1.203684e+01	0	0
535547	2.183000e+00	-1.409247e+02	8.613647e-01	0	0
537500	2.183000e+00	-1.370112e+02	-3.994311e+00	0	0
539453	2.183000e+00	-1.280340e+02	9.582556e+00	0	0
541406	2.183000e+00	-1.151940e+02	6.946301e+01	0	0
543359	2.183000e+00	-1.006677e+02	4.915322e+01	0	0
545313	2.183000e+00	-9.222635e+01	-6.680935e+00	0	0
547266	2.183000e+00	-9.045668e+01	4.239559e-02	0	0
549219	2.183000e+00	-8.631058e+01	-2.745062e+01	0	0
551172	2.183000e+00	-1.006585e+02	-6.564966e+01	0	0
553125	2.183000e+00	-1.053998e+02	-2.855706e+01	0	0
555078	2.183000e+00	-1.066450e+02	1.852684e+00	0	0
557031	2.183000e+00	-9.522970e+01	-1.535730e+00	0	0
558984	2.182777e+00	-9.054707e+01	6.020870e-01	0	0
560938	2.182224e+00	-8.939092e+01	3.365290e+01	0	0
562891	2.183000e+00	-8.030014e+01	5.708856e+01	0	0
564844	2.183000e+00	-6.579629e+01	-8.111889e+00	0	0
566797	2.182776e+00	-5.241142e+01	5.514411e+00	0	0
568750	2.182000e+00	-5.839951e+01	-1.523504e+01	0	0
570703	2.182000e+00	-6.503471e+01	-6.300140e+01	0	0
572656	2.182000e+00	-5.425592e+01	-5.858350e+00	0	0
574609	2.182000e+00	-5.127791e+01	-6.754259e-01	0	0
576563	2.182000e+00	-5.107117e+01	9.869296e-01	0	0
578516	2.182000e+00	-4.677691e+01	-3.839497e+00	0	0
580469	2.182000e+00	-3.518865e+01	1.450862e+01	0	0
582422	2.182000e+00	-3.709835e+01	5.689435e+01	0	0
584375	2.182000e+00	-3.607141e+01	-6.383365e+00	0	0
586328	2.182000e+00	-1.838659e+01	4.432795e+00	0	0
588281	2.182000e+00	-2.941494e+01	-1.168922e+01	0	0
590234	2.182000e+00	-6.776908e+00	-6.536431e+01	0	0
592188	2.182000e+00	-1.714868e+01	-3.790660e+01	0	0
594141	2.182000e+00	-1.383655e+01	2.726302e+00	0	0
596094	2.182000e+00	-8.605378e+00	5.403769e-01	0	0
598047	2.182000e+00	-1.532729e+01	-2.231749e+00	0	0
600000	2.182000e+00	9.101548e+00	1.404589e+01	0	0
601953	2.182000e+00	2.774192e+01	5.414356e+01	0	0
603906	2.182000e+00	3.511309e+01	-9.751314e-01	0	0
605859	2.182000e+00	5.074459e+01	3.808381e+00	0	0
607813	2.182000e+00	5.015057e+01	-1.141994e+01	0	0
609766	2.182000e+00	4.811457e+01	-6.062598e+01	0	0
611719	2.182000e+00	4.895140e+01	-4.203148e+01	0	0
613672	2.182000e+00	5.604581e+01	-2.016877e+01	0	0
615625	2.182000e+00	6.147733e+01	2.890964e+00	0	0
617578	2.182000e+00	5.662506e+01	-2.816180e+00	0	0
619531	2.182000e+00	7.213605e+01	1.004756e+01	0	0
621484	2.182000e+00	8.667739e+01	6.349976e+01	0	0
623438	2.182000e+00	9.031323e+01	4.337147e+01	0	0
625391	2.182000e+00	1.038364e+02	-6.756866e+00	0	0
627344	2.182000e+00	1.229209e+02	-1.356534e+00	0	0
629297	2.181774e+00	1.273346e+02	-3.231448e+01	0	0
631250	2.181000e+00	1.323986e+02	-6.567587e+01	0	0
633203	2.181226e+00	1.370621e+02	-3.927937e+01	0	0
635156	2.181774e+00	1.455164e+02	4.396363e+00	0	0
637109	2.181000e+00	1.582216e+02	2.776188e+00	0	0
639063	2.181000e+00	1.639784e+02	1.636873e+00	0	0
641016	2.181000e+00	1.750936e+02	2.690108e+01	0	0
642969	2.181000e+00	1.949330e+02	6.570343e+01	0	0
644922	2.181000e+00	2.178340e+02	-9.615840e+00	0	0
646875	2.181000e+00	2.333454e+02	6.348838e+00	0	0
648828	2.181000e+00	2.451994e+02	-1.728812e+01	0	0
650781	2.181000e+00	2.473185e+02	-7.069896e+01	0	0
652734	2.181000e+00	2.515995e+02	-8.730002e+00	0	0
654688	2.181000e+00	2.653986e+02	-4.518504e+00	0	0
656641	2.181000e+00	2.793510e+02	-3.800949e+00	0	0
658594	2.181000e+00	2.895401e+02	-6.806751e+00	0	0
660547	2.181000e+00	3.034640e+02	1.754657e+01	0	0
662500	2.181000e+00	3.228520e+02	6.121554e+01	0	0
664453	2.181000e+00	3.451804e+02	-1.214874e+00	0	0
666406	2.181000e+00	3.613268e+02	2.929507e+00	0	0
668359	2.181000e+00	3.559972e+02	-1.464479e+01	0	0
670313	2.181000e+00	3.582187e+02	-6.539178e+01	0	0
672266	2.181000e+00	3.697474e+02	-2.144769e+01	0	0
674219	2.181000e+00	3.744001e+02	1.408614e+00	0	0
676172	2.181000e+00	3.797484e+02	2.946625e-01	0	0
678125	2.181000e+00	3.776281e+02	-3.280887e+00	0	0
680078	2.181000e+00	3.810775e+02	1.285947e+01	0	0
682031	2.181000e+00	3.872640e+02	6.180483e+01	0	0
683984	2.181000e+00	3.981491e+02	1.649174e+01	0	0
685938	2.181000e+00	4.173382e+02	1.611218e+00	0	0
687891	2.181000e+00	4.150143e+02	-1.176961e+01	0	0
689844	2.181000e+00	4.039394e+02	-6.735652e+01	0	0
691797	2.181000e+00	3.727910e+02	-4.991089e+01	0	0
693750	2.181000e+00	3.828477e+02	-2.276730e+01	0	0
695703	2.180772e+00	3.524405e+02	3.017674e+00	0	0
697656	2.180000e+00	3.314705e+02	-3.814660e+00	0	0
699609	2.180000e+00	3.046419e+02	1.298312e+01	0	0
701563	2.180000e+00	2.845142e+02	7.595633e+01	0	0
703516	2.180000e+00	2.805840e+02	4.805337e+01	0	0
705469	2.180000e+00	2.642588e+02	-3.779541e+00	0	0
707422	2.180000e+00	2.451925e+02	2.018165e+00	0	0
709375	2.180000e+00	2.057546e+02	-3.256480e+01	0	0
711328	2.180000e+00	1.669257e+02	-7.014720e+01	0	0
713281	2.180000e+00	1.367922e+02	-1.789924e+01	0	0
715234	2.180000e+00	1.096102e+02	1.256109e+00	0	0
717188	2.180000e+00	8.068640e+01	-9.836214e-01	0	0
719141	2.180000e+00	5.096930e+01	2.287776e+00	0	0
721094	2.180000e+00	2.999846e+01	4.479744e+01	0	0
723047	2.180000e+00	2.326103e+01	6.630162e+01	0	0
725000	2.180000e+00	5.567677e+00	-9.494746e+00	0	0
726953	2.180000e+00	-7.935259e+00	6.355710e+00	0	0
728906	2.180000e+00	-2.771423e+01	-1.810125e+01	0	0
730859	2.180000e+00	-4.903417e+01	-7.480278e+01	0	0
732813	2.180000e+00	-7.012277e+01	-1.368680e+01	0	0
734766	2.180000e+00	-7.946998e+01	-2.776683e+00	0	0
736719	2.180000e+00	-1.122879e+02	-1.501987e+00	0	0
738672	2.180000e+00	-1.179517e+02	-5.057046e+00	0	0
740625	2.180000e+00	-1.220556e+02	1.638172e+01	0	0
742578	2.180000e+00	-1.297021e+02	6.101092e+01	0	0
744531	2.180000e+00	-1.243060e+02	-9.092124e+00	0	0
746484	2.180000e+00	-1.213567e+02	5.580261e+00	0	0
748438	2.180000e+00	-1.124360e+02	-1.061331e+01	0	0
750391	2.180000e+00	-1.294766e+02	-6.497411e+01	0	0
752344	2.180000e+00	-1.479910e+02	-3.118066e+01	0	0
754297	2.180000e+00	-1.478503e+02	7.071098e+00	0	0
756250	2.180000e+00	-1.565500e+02	6.550990e+00	0	0
758203	2.180000e+00	-1.607744e+02	2.827098e+00	0	0
760156	2.180000e+00	-1.674039e+02	2.137468e+01	0	0
762109	2.179770e+00	-1.536785e+02	6.174658e+01	0	0
764063	2.179000e+00	-1.539925e+02	-4.256603e+00	0	0
766016	2.179000e+00	-1.488930e+02	5.751840e+00	0	0
767969	2.179231e+00	-1.564738e+02	-1.299564e+01	0	0
769922	2.179769e+00	-1.599789e+02	-6.479737e+01	0	0
771875	2.179000e+00	-1.712000e+02	-3.150140e+01	0	0
773828	2.179000e+00	-1.699187e+02	-3.883645e-01	0	0
775781	2.179000e+00	-1.801809e+02	-4.546696e+00	0	0
777734	2.179000e+00	-1.757622e+02	-1.032579e+01	0	0
779688	2.179000e+00	-1.723238e+02	2.269471e+00	0	0
781641	2.179000e+00	-1.780850e+02	5.654920e+01	0	0
783594	2.179000e+00	-1.653927e+02	2.940480e+01	0	0
785547	2.179000e+00	-1.584307e+02	-5.622263e+00	0	0
787500	2.179000e+00	-1.606066e+02	-5.214520e+00	0	0
789453	2.179000e+00	-1.654985e+02	-4.850441e+01	0	0
791406	2.179000e+00	-1.765420e+02	-6.446237e+01	0	0
793359	2.179000e+00	-1.793807e+02	-3.354447e+01	0	0
795313	2.179000e+00	-1.756078e+02	1.326165e+01	0	0
797266	2.179000e+00	-1.864574e+02	8.875893e+00	0	0
799219	2.179000e+00	-1.808252e+02	9.533002e+00	0	0
801172	2.179000e+00	-1.783256e+02	4.079425e+01	0	0
803125	2.179000e+00	-1.620164e+02	6.466631e+01	0	0
805078	2.179000e+00	-1.725830e+02	-9.479146e+00	0	0
807031	2.179000e+00	-1.518591e+02	6.410045e+00	0	0
808984	2.179000e+00	-1.596740e+02	-1.973481e+01	0	0
810938	2.179000e+00	-1.589455e+02	-7.752309e+01	0	0
812891	2.179000e+00	-1.660957e+02	-1.627677e+01	0	0
814844	2.179000e+00	-1.807853e+02	-1.010698e+01	0	0
816797	2.179000e+00	-1.637072e+02	-8.999171e+00	0	0
818750	2.179000e+00	-1.586208e+02	-7.950605e+00	0	0
820703	2.179000e+00	-1.697779e+02	2.559088e+01	0	0
822656	2.179000e+00	-1.633649e+02	5.907958e+01	0	0
824609	2.179000e+00	-1.545974e+02	-6.416981e+00	0	0
826563	2.178767e+00	-1.474935e+02	5.238372e+00	0	0
828516	2.178000e+00	-1.512888e+02	-1.506912e+01	0	0
830469	2.178000e+00	-1.574270e+02	-6.263904e+01	0	0
832422	2.178000e+00	-1.569075e+02	-1.675352e+01	0	0
834375	2.178000e+00	-1.515196e+02	-8.530322e+00	0	0
836328	2.178000e+00	-1.579723e+02	1.797193e+00	0	0
838281	2.178000e+00	-1.617558e+02	-4.073566e+00	0	0
840234	2.178000e+00	-1.590194e+02	1.439779e+01	0	0
842188	2.178000e+00	-1.475332e+02	6.015873e+01	0	0
844141	2.178000e+00	-1.421337e+02	6.072152e+00	0	0
846094	2.178000e+00	-1.314881e+02	2.556567e+00	0	0
848047	2.178000e+00	-1.285063e+02	-1.052805e+01	0	0
850000	2.178000e+00	-1.476131e+02	-6.615995e+01	0	0
851953	2.178000e+00	-1.448576e+02	-5.065861e+01	0	0
853906	2.178000e+00	-1.534097e+02	-1.452475e+00	0	0
855859	2.178000e+00	-1.447288e+02	2.846076e+00	0	0
857813	2.178000e+00	-1.460669e+02	-1.190376e+00	0	0
859766	2.178000e+00	-1.475486e+02	1.592834e+01	0	0
861719	2.178000e+00	-1.342883e+02	6.825174e+01	0	0
863672	2.178000e+00	-1.298795e+02	2.306205e+01	0	0
865625	2.178000e+00	-1.230718e+02	1.798837e-01	0	0
867578	2.178000e+00	-1.248759e+02	-7.723939e+00	0	0
869531	2.178000e+00	-1.187432e+02	-5.579676e+01	0	0
871484	2.178000e+00	-1.276325e+02	-6.518780e+01	0	0
873438	2.178000e+00	-1.284341e+02	-3.232263e+01	0	0
875391	2.178000e+00	-1.261134e+02	3.394817e+00	0	0
877344	2.178000e+00	-1.337652e+02	-1.554923e+00	0	0
879297	2.178000e+00	-1.275151e+02	2.213766e+00	0	0
881250	2.178000e+00	-1.299969e+02	3.967121e+01	0	0
883203	2.178000e+00	-1.265607e+02	5.783391e+01	0	0
885156	2.178000e+00	-1.306345e+02	-8.461263e+00	0	0
887109	2.178000e+00	-1.152410e+02	5.510611e+00	0	0
889063	2.178000e+00	-1.123107e+02	-1.544951e+01	0	0
891016	2.178000e+00	-1.256501e+02	-6.881877e+01	0	0
892969	2.178000e+00	-1.330650e+02	-2.214480e+01	0	0
894922	2.178000e+00	-1.300137e+02	1.417834e+00	0	0
896875	2.177765e+00	-1.314408e+02	4.476797e-01	0	0
898828	2.177000e+00	-1.338731e+02	-4.176995e+00	0	0
900781	2.177000e+00	-1.454177e+02	1.614265e+01	0	0
902734	2.177000e+00	-1.339846e+02	5.862320e+01	0	0
904688	2.177000e+00	-1.197824e+02	-8.954762e+00	0	0
906641	2.177000e+00	-1.109350e+02	5.459055e+00	0	0
908594	2.177000e+00	-1.199554e+02	-1.471712e+01	0	0
910547	2.177000e+00	-1.198712e+02	-6.763359e+01	0	0
912500	2.177000e+00	-1.249193e+02	-2.566173e+01	0	0
914453	2.177000e+00	-1.310374e+02	1.958095e+00	0	0
916406	2.177000e+00	-1.320321e+02	1.900894e-01	0	0
918359	2.177000e+00	-1.298540e+02	-3.711804e+00	0	0
920313	2.177000e+00	-1.361078e+02	1.456915e+01	0	0
922266	2.177000e+00	-1.296023e+02	6.652531e+01	0	0
924219	2.177000e+00	-1.235152e+02	1.662756e+01	0	0
926172	2.177000e+00	-1.301792e+02	2.128670e+00	0	0
928125	2.177000e+00	-1.178521e+02	-1.482782e+01	0	0
930078	2.177000e+00	-1.120441e+02	-7.066192e+01	0	0
932031	2.177000e+00	-1.261490e+02	-3.473731e+01	0	0
933984	2.177000e+00	-1.407151e+02	-1.399253e+01	0	0
935938	2.177000e+00	-1.308936e+02	1.624758e+00	0	0
937891	2.177000e+00	-1.289290e+02	-3.963716e+00	0	0
939844	2.177000e+00	-1.358352e+02	1.382154e+01	0	0
941797	2.177000e+00	-1.495103e+02	7.081690e+01	0	0
943750	2.177000e+00	-1.280306e+02	3.121919e+01	0	0
945703	2.177000e+00	-1.292641e+02	-8.681494e-01	0	0
947656	2.177000e+00	-1.338707e+02	-9.557156e+00	0	0
949609	2.177000e+00	-1.358995e+02	-6.314736e+01	0	0
951563	2.177000e+00	-1.443522e+02	-5.901656e+01	0	0
953516	2.177000e+00	-1.409811e+02	-2.120127e+01	0	0
955469	2.177000e+00	-1.477354e+02	9.935203e+00	0	0
957422	2.177000e+00	-1.595879e+02	2.611199e+00	0	0
959375	2.177000e+00	-1.535098e+02	7.414842e+00	0	0
961328	2.176762e+00	-1.538724e+02	5.458381e+01	0	0
963281	2.176000e+00	-1.487276e+02	6.157517e+01	0	0
965234	2.176238e+00	-1.455300e+02	-8.947492e+00	0	0
967188	2.176762e+00	-1.259680e+02	5.933654e+00	0	0
969141	2.176000e+00	-1.281599e+02	-2.333546e+01	0	0
971094	2.176238e+00	-1.416445e+02	-7.541995e+01	0	0
973047	2.176762e+00	-1.392073e+02	-5.886983e+00	0	0
975000	2.176000e+00	-1.467603e+02	-7.347262e+00	0	0
976953	2.176000e+00	-1.420040e+02	-3.322518e+00	0	0
978906	2.176000e+00	-1.455500e+02	-3.476182e+00	0	0
980859	2.176000e+00	-1.433213e+02	2.780172e+01	0	0
982813	2.176000e+00	-1.484111e+02	5.830261e+01	0	0
984766	2.176000e+00	-1.481614e+02	-1.163388e+01	0	0
986719	2.176000e+00	-1.362750e+02	3.716125e+00	0	0
988672	2.176000e+00	-1.347959e+02	-1.552676e+01	0	0
990625	2.176000e+00	-1.413806e+02	-6.858986e+01	0	0
992578	2.176000e+00	-1.525825e+02	-2.567816e+01	0	0
994531	2.176000e+00	-1.647464e+02	1.937602e+00	0	0
996484	2.176000e+00	-1.616579e+02	2.415777e-01	0	0
998438	2.176000e+00	-1.582190e+02	-4.008546e+00	0	0
1000391	2.176000e+00	-1.586988e+02	1.555599e+01	0	0
1002344	2.176000e+00	-1.503630e+02	5.733370e+01	0	0
1004297	2.176000e+00	-1.417340e+02	-4.633332e+00	0	0
1006250	2.176000e+00	-1.361171e+02	4.002739e+00	0	0
1008203	2.176000e+00	-1.435484e+02	-1.134625e+01	0	0
1010156	2.176000e+00	-1.414810e+02	-6.603061e+01	0	0
1012109	2.176000e+00	-1.614119e+02	-5.208618e+01	0	0
1014063	2.176000e+00	-1.681058e+02	-5.933420e+00	0	0
1016016	2.176000e+00	-1.676511e+02	1.613223e+00	0	0
1017969	2.176000e+00	-1.635259e+02	-2.106974e+00	0	0
1019922	2.176000e+00	-1.578143e+02	1.619970e+01	0	0
1021875	2.176000e+00	-1.538552e+02	6.674308e+01	0	0
1023828	2.176000e+00	-1.382042e+02	2.184970e+01	0	0
1025781	2.176000e+00	-1.291465e+02	4.980952e+00	0	0
1027734	2.176000e+00	-1.031459e+02	-9.402381e+00	0	0
1029688	2.176000e+00	-1.014919e+02	-6.914473e+01	0	0
1031641	2.176000e+00	-9.136601e+01	-6.074786e+01	0	0
1033594	2.176000e+00	-4.806156e+01	-3.345281e+01	0	0
1035547	2.176000e+00	-4.222053e+01	4.400686e+00	0	0
1037500	2.175760e+00	-3.438673e+01	-2.250244e+00	0	0
1039453	2.175000e+00	-1.929428e+01	4.430064e+00	0	0
1041406	2.175000e+00	-1.557014e+01	4.978231e+01	0	0
1043359	2.175000e+00	-4.760270e+00	6.076237e+01	0	0
1045313	2.175000e+00	-1.385934e+01	-9.054258e+00	0	0
1047266	2.175000e+00	2.729706e+00	6.239641e+00	0	0
1049219	2.175000e+00	1.287478e+00	-1.878769e+01	0	0
1051172	2.175000e+00	-2.719607e+00	-7.321524e+01	0	0
1053125	2.175000e+00	2.098268e+01	-1.396464e+01	0	0
1055078	2.175000e+00	3.183449e+01	-2.188472e+00	0	0
1057031	2.175000e+00	3.526136e+01	-1.299694e+00	0	0
1058984	2.175000e+00	4.061055e+01	-6.492644e+00	0	0
1060938	2.175000e+00	4.308665e+01	1.629691e+01	0	0
1062891	2.175000e+00	6.257276e+01	6.029946e+01	0	0
1064844	2.175000e+00	6.541983e+01	-9.683284e+00	0	0
1066797	2.175000e+00	7.782521e+01	5.652179e+00	0	0
1068750	2.175000e+00	1.031044e+02	-1.515287e+01	0	0
1070703	2.175000e+00	1.256650e+02	-6.594199e+01	0	0
1072656	2.175000e+00	1.165339e+02	-2.268356e+01	0	0
1074609	2.175000e+00	9.080736e+01	1.601301e+00	0	0
1076563	2.175000e+00	7.299119e+01	2.057089e-01	0	0
1078516	2.175000e+00	7.395117e+01	-3.623206e+00	0	0
1080469	2.175000e+00	8.449527e+01	1.393166e+01	0	0
1082422	2.175000e+00	8.204680e+01	5.782025e+01	0	0
1084375	2.175000e+00	7.629895e+01	8.303051e+00	0	0
1086328	2.175000e+00	8.396461e+01	3.212042e+00	0	0
1088281	2.175000e+00	8.752760e+01	-1.206266e+01	0	0
1090234	2.175000e+00	6.681740e+01	-6.204962e+01	0	0
1092188	2.175000e+00	4.223394e+01	-3.413133e+01	0	0
1094141	2.175000e+00	7.811418e+00	-9.079454e+00	0	0
1096094	2.175000e+00	-1.920451e+01	2.540571e+00	0	0
1098047	2.175000e+00	-4.213049e+01	-3.002374e+00	0	0
1100000	2.174758e+00	-5.226693e+01	1.381247e+01	0	0
1101953	2.174000e+00	-5.952744e+01	6.115819e+01	0	0
1103906	2.174000e+00	-8.065746e+01	1.936041e+01	0	0
1105859	2.174000e+00	-8.987248e+01	5.622483e-01	0	0
1107813	2.174000e+00	-8.486384e+01	-1.017082e+01	0	0
1109766	2.174000e+00	-1.097505e+02	-6.271847e+01	0	0
1111719	2.174000e+00	-1.202810e+02	-5.440674e+01	0	0
1113672	2.174000e+00	-1.341467e+02	-1.636964e+01	0	0
1115625	2.174000e+00	-1.478651e+02	2.068622e+00	0	0
1117578	2.174000e+00	-1.527220e+02	-3.726744e+00	0	0
1119531	2.174000e+00	-1.637326e+02	1.253257e+01	0	0
1121484	2.174000e+00	-1.742042e+02	7.581961e+01	0	0
1123438	2.174000e+00	-1.654818e+02	5.276193e+01	0	0
1125391	2.174000e+00	-1.571501e+02	-7.863136e+00	0	0
1127344	2.174000e+00	-1.651553e+02	4.406225e+00	0	0
1129297	2.174000e+00	-1.647631e+02	-2.026693e+01	0	0
1131250	2.174000e+00	-1.801040e+02	-7.116308e+01	0	0
1133203	2.174000e+00	-1.795756e+02	-1.100643e+01	0	0
1135156	2.174000e+00	-1.755166e+02	-2.010322e+00	0	0
1137109	2.174000e+00	-1.928963e+02	4.451350e-01	0	0
1139063	2.174000e+00	-1.967765e+02	-4.330072e+00	0	0
1141016	2.174000e+00	-1.976007e+02	2.093572e+01	0	0
1142969	2.174000e+00	-1.825702e+02	6.435415e+01	0	0
1144922	2.174000e+00	-1.733094e+02	-1.010998e+01	0	0
1146875	2.174000e+00	-1.708070e+02	6.270906e+00	0	0
1148828	2.174000e+00	-1.862809e+02	-1.543264e+01	0	0
1150781	2.174000e+00	-1.905470e+02	-7.314274e+01	0	0
1152734	2.174000e+00	-1.813709e+02	-2.785901e+01	0	0
1154688	2.174000e+00	-1.817716e+02	6.000956e+00	0	0
1156641	2.174000e+00	-2.020589e+02	3.736275e+00	0	0
1158594	2.174000e+00	-1.966073e+02	-8.265365e-01	0	0
1160547	2.174000e+00	-1.952695e+02	2.101587e+01	0	0
1162500	2.173755e+00	-1.873124e+02	6.343029e+01	0	0
1164453	2.173245e+00	-1.687171e+02	-6.390125e+00	0	0
1166406	2.174000e+00	-1.663830e+02	7.881943e+00	0	0
1168359	2.174000e+00	-1.601320e+02	-1.326124e+01	0	0
1170313	2.173755e+00	-1.735359e+02	-7.088249e+01	0	0
1172266	2.173245e+00	-1.757469e+02	-4.555590e+01	0	0
1174219	2.173755e+00	-1.872467e+02	-1.273503e+01	0	0
1176172	2.173245e+00	-1.807930e+02	1.786314e+00	0	0
1178125	2.173755e+00	-1.947484e+02	-3.896342e+00	0	0
1180078	2.173000e+00	-1.923265e+02	1.343199e+01	0	0
1182031	2.173000e+00	-1.817383e+02	7.134218e+01	0	0
1183984	2.173000e+00	-1.873692e+02	3.677538e+01	0	0
1185938	2.173000e+00	-2.162637e+02	-1.517048e+00	0	0
1187891	2.173000e+00	-2.352799e+02	-1.613836e+01	0	0
1189844	2.173000e+00	-2.543926e+02	-6.945323e+01	0	0
1191797	2.173000e+00	-2.347410e+02	-2.726242e+01	0	0
1193750	2.173000e+00	-1.854970e+02	-1.032185e+01	0	0
1195703	2.173000e+00	-1.202936e+02	-1.660508e+00	0	0
1197656	2.173000e+00	-4.107771e+01	-6.649712e+00	0	0
1199609	2.173000e+00	5.583330e+01	1.157791e+01	0	0
1201563	2.173000e+00	1.763080e+02	7.712404e+01	0	0
1203516	2.173000e+00	3.569682e+02	4.910926e+01	0	0
1205469	2.173000e+00	6.234883e+02	-7.018855e+00	0	0
1207422	2.173000e+00	8.795507e+02	5.372673e+00	0	0
1209375	2.173000e+00	1.128565e+03	-1.845400e+01	0	0
1211328	2.173000e+00	1.371827e+03	-7.080368e+01	0	0
1213281	2.173000e+00	1.631009e+03	-1.610040e+01	0	0
1215234	2.173000e+00	1.812145e+03	5.155007e-01	0	0
1217188	2.173000e+00	1.790546e+03	7.305635e-01	0	0
1219141	2.173000e+00	1.670464e+03	-4.677479e+00	0	0
1221094	2.173000e+00	1.414926e+03	1.950570e+01	0	0
1223047	2.173000e+00	1.098857e+03	6.427189e+01	0	0
1225000	2.173000e+00	9.150749e+02	-8.431677e+00	0	0
1226953	2.173000e+00	7.062712e+02	7.844567e+00	0	0
1228906	2.173000e+00	5.418574e+02	-1.645065e+01	0	0
1230859	2.173000e+00	2.462028e+02	-6.423527e+01	0	0
1232813	2.173000e+00	-8.620461e+01	-7.704291e+00	0	0
1234766	2.173000e+00	-2.392556e+02	-5.264816e-01	0	0
1236719	2.173000e+00	-3.044493e+02	8.129847e-01	0	0
1238672	2.172753e+00	-3.309260e+02	-4.125843e+00	0	0
1240625	2.172000e+00	-3.164105e+02	1.522027e+01	0	0
1242578	2.172000e+00	-2.658344e+02	5.777278e+01	0	0
1244531	2.172000e+00	-2.329041e+02	2.661275e+00	0	0
1246484	2.172000e+00	-1.891948e+02	3.357659e+00	0	0
1248438	2.172000e+00	-1.561190e+02	-1.301122e+01	0	0
1250391	2.172000e+00	-1.313213e+02	-6.727129e+01	0	0
1252344	2.172000e+00	-1.351300e+02	-3.825841e+01	0	0
1254297	2.172000e+00	-1.276492e+02	3.234523e+00	0	0
1256250	2.172000e+00	-1.356851e+02	-1.163002e+00	0	0
1258203	2.172000e+00	-1.314402e+02	-4.255792e+00	0	0
1260156	2.172000e+00	-1.352217e+02	1.332757e+01	0	0
1262109	2.172000e+00	-1.278195e+02	6.164089e+01	0	0
1264063	2.172000e+00	-1.157085e+02	1.723980e+01	0	0
1266016	2.172000e+00	-1.074157e+02	1.740202e+00	0	0
1267969	2.172000e+00	-1.090900e+02	-1.413740e+01	0	0
1269922	2.172000e+00	-1.193447e+02	-6.571355e+01	0	0
1271875	2.172000e+00	-1.317945e+02	-2.836986e+01	0	0
1273828	2.172000e+00	-1.457608e+02	-3.992869e+00	0	0
1275781	2.172000e+00	-1.430225e+02	7.844766e-01	0	0
1277734	2.172000e+00	-1.464374e+02	-3.565084e+00	0	0
1279688	2.172000e+00	-1.480133e+02	1.308489e+01	0	0
1281641	2.172000e+00	-1.371907e+02	7.703228e+01	0	0
1283594	2.172000e+00	-1.263906e+02	5.115766e+01	0	0
1285547	2.172000e+00	-1.304334e+02	-7.332409e+00	0	0
1287500	2.172000e+00	-1.221253e+02	1.367534e+00	0	0
1289453	2.172000e+00	-1.216850e+02	-3.139421e+01	0	0
1291406	2.172000e+00	-1.253323e+02	-7.293376e+01	0	0
1293359	2.172000e+00	-1.147424e+02	-2.780323e+01	0	0
1295313	2.172000e+00	-1.167498e+02	3.735115e+00	0	0
1297266	2.172000e+00	-1.225736e+02	2.083880e+00	0	0
1299219	2.172000e+00	-1.274146e+02	-2.626244e+00	0	0
1301172	2.172000e+00	-1.230171e+02	2.377346e+01	0	0
1303125	2.172000e+00	-1.142227e+02	7.074366e+01	0	0
1305078	2.172000e+00	-1.220403e+02	-1.091796e+01	0	0
1307031	2.172000e+00	-1.092785e+02	7.144687e+00	0	0
1308984	2.172000e+00	-1.039071e+02	-2.013572e+01	0	0
1310938	2.172000e+00	-1.028446e+02	-7.277157e+01	0	0
1312891	2.171750e+00	-1.109747e+02	-8.274539e+00	0	0
1314844	2.171250e+00	-1.082056e+02	-5.486111e-01	0	0
1316797	2.171750e+00	-9.630725e+01	6.162526e-01	0	0
1318750	2.171000e+00	-1.018291e+02	-4.190271e+00	0	0
1320703	2.171000e+00	-9.105457e+01	1.686482e+01	0	0
1322656	2.171000e+00	-7.118451e+01	6.388882e+01	0	0
1324609	2.171000e+00	-7.463028e+01	1.214938e+01	0	0
1326563	2.171000e+00	-5.763693e+01	9.566721e-01	0	0
1328516	2.171000e+00	-5.742069e+01	-1.456509e+01	0	0
1330469	2.171000e+00	-7.044426e+01	-6.628739e+01	0	0
1332422	2.171000e+00	-6.601533e+01	-2.759079e+01	0	0
1334375	2.171000e+00	-7.040578e+01	2.321700e+00	0	0
1336328	2.171000e+00	-6.402547e+01	-2.985379e-03	0	0
1338281	2.171000e+00	-6.690417e+01	-3.834616e+00	0	0
1340234	2.171000e+00	-7.091017e+01	1.478361e+01	0	0
1342188	2.171000e+00	-5.590320e+01	5.986878e+01	0	0
1344141	2.171000e+00	-5.788005e+01	9.948827e+00	0	0
1346094	2.171000e+00	-4.570266e+01	2.606786e+00	0	0
1348047	2.171000e+00	-3.098754e+01	-1.354414e+01	0	0
1350000	2.171000e+00	-2.932518e+01	-6.735576e+01	0	0
1351953	2.171000e+00	-3.389804e+01	-4.059942e+01	0	0
1353906	2.171000e+00	-3.182785e+01	-9.372860e+00	0	0
1355859	2.171000e+00	-2.990674e+01	2.581867e+00	0	0
1357813	2.171000e+00	-4.189779e+01	-3.276525e+00	0	0
1359766	2.171000e+00	-2.515169e+01	1.440133e+01	0	0
1361719	2.171000e+00	-1.891544e+01	7.431025e+01	0	0
1363672	2.171000e+00	-1.049451e+01	4.221427e+01	0	0
1365625	2.171000e+00	-5.918410e+00	-5.534900e+00	0	0
1367578	2.171000e+00	4.029230e+00	2.290802e+00	0	0
1369531	2.171000e+00	3.926925e+00	-2.754537e+01	0	0
1371484	2.171000e+00	4.991628e-01	-6.672670e+01	0	0
1373438	2.171000e+00	7.406475e+00	-1.455307e+01	0	0
1375391	2.171000e+00	1.492672e+01	6.945858e-01	0	0
1377344	2.170748e+00	1.207634e+01	-4.769226e-01	0	0
1379297	2.170000e+00	1.986275e+01	-7.599427e-02	0	0
1381250	2.170000e+00	2.955492e+01	3.416138e+01	0	0
1383203	2.170000e+00	2.232512e+01	5.872198e+01	0	0
1385156	2.170000e+00	3.780437e+01	-9.338704e+00	0	0
1387109	2.170000e+00	5.208632e+01	5.850070e+00	0	0
1389063	2.170000e+00	5.075201e+01	-1.748483e+01	0	0
1391016	2.170000e+00	4.711213e+01	-6.816231e+01	0	0
1392969	2.170000e+00	5.625657e+01	-1.872920e+01	0	0
1394922	2.170000e+00	6.211743e+01	8.623780e-01	0	0
1396875	2.170000e+00	6.242208e+01	5.095064e-01	0	0
1398828	2.170000e+00	7.183461e+01	-4.548088e+00	0	0
1400781	2.170000e+00	8.100975e+01	1.711749e+01	0	0
1402734	2.170000e+00	9.129136e+01	5.625040e+01	0	0
1404688	2.170000e+00	1.005759e+02	-9.143924e+00	0	0
1406641	2.170000e+00	1.226227e+02	5.376593e+00	0	0
1408594	2.170000e+00	1.294101e+02	-1.500478e+01	0	0
1410547	2.170000e+00	1.407843e+02	-6.823219e+01	0	0
1412500	2.170000e+00	1.410156e+02	-3.585825e+01	0	0
1414453	2.170000e+00	1.422831e+02	-2.581559e+00	0	0
1416406	2.170000e+00	1.674133e+02	5.720602e-01	0	0
1418359	2.170000e+00	1.745123e+02	-4.085922e+00	0	0
1420313	2.170000e+00	1.781289e+02	1.521794e+01	0	0
1422266	2.170000e+00	1.937188e+02	6.306112e+01	0	0
1424219	2.170000e+00	1.977672e+02	1.436641e+01	0	0
1426172	2.170000e+00	2.152959e+02	2.138958e+00	0	0
1428125	2.170000e+00	2.435500e+02	-1.450720e+01	0	0
1430078	2.170000e+00	2.453703e+02	-6.886805e+01	0	0
1432031	2.170000e+00	2.547092e+02	-4.424589e+01	0	0
1433984	2.170000e+00	2.781915e+02	-1.944838e+01	0	0
1435938	2.170000e+00	2.784837e+02	2.856263e+00	0	0
1437891	2.170000e+00	2.861529e+02	-3.910997e+00	0	0
1439844	2.170000e+00	3.030316e+02	1.483286e+01	0	0
1441797	2.170000e+00	3.054691e+02	7.718137e+01	0	0
1443750	2.170000e+00	3.326458e+02	4.748661e+01	0	0
1445703	2.170000e+00	3.509313e+02	-2.778099e+00	0	0
1447656	2.170000e+00	3.634530e+02	-3.110008e+00	0	0
1449609	2.170000e+00	3.787294e+02	-4.712418e+01	0	0
1451563	2.169745e+00	3.798401e+02	-7.501612e+01	0	0
1453516	2.169255e+00	3.819514e+02	-4.129071e+01	0	0
1455469	2.169745e+00	3.982959e+02	6.029082e+00	0	0
1457422	2.169000e+00	4.122146e+02	2.169190e+00	0	0
1459375	2.169000e+00	4.282331e+02	5.072197e+00	0	0
1461328	2.169000e+00	4.268112e+02	4.419010e+01	0	0
1463281	2.169000e+00	4.537358e+02	6.935156e+01	0	0
1465234	2.169000e+00	4.850258e+02	-1.096445e+01	0	0
1467188	2.169000e+00	4.827241e+02	6.407464e+00	0	0
1469141	2.169000e+00	4.828020e+02	-2.425887e+01	0	0
1471094	2.169000e+00	4.885330e+02	-7.161165e+01	0	0
1473047	2.169000e+00	4.907191e+02	1.123456e+00	0	0
1475000	2.169000e+00	4.908517e+02	-1.365273e+01	0	0
1476953	2.169000e+00	4.865250e+02	-9.183843e+00	0	0
1478906	2.169000e+00	4.768499e+02	-1.344209e+01	0	0
1480859	2.169000e+00	4.589062e+02	1.534517e+01	0	0
1482813	2.169000e+00	4.559209e+02	5.784572e+01	0	0
1484766	2.169000e+00	4.443902e+02	-1.046042e+01	0	0
1486719	2.169000e+00	4.331295e+02	5.586895e+00	0	0
1488672	2.169000e+00	4.089585e+02	-1.391386e+01	0	0
1490625	2.169000e+00	3.846920e+02	-6.512690e+01	0	0
1492578	2.169000e+00	3.630604e+02	-3.335086e+01	0	0
1494531	2.169000e+00	3.260940e+02	1.975204e-01	0	0
1496484	2.169000e+00	2.911121e+02	8.780931e+00	0	0
1498438	2.169000e+00	2.621872e+02	3.351987e+00	0	0
1500391	2.169000e+00	2.340955e+02	2.494094e+01	0	0
1502344	2.169000e+00	2.101545e+02	6.239683e+01	0	0
1504297	2.169000e+00	1.927082e+02	-2.333263e+00	0	0
1506250	2.169000e+00	1.584852e+02	8.148012e+00	0	0
1508203	2.169000e+00	1.363358e+02	-1.255026e+01	0	0
1510156	2.169000e+00	1.110863e+02	-6.656922e+01	0	0
1512109	2.169000e+00	8.599398e+01	-4.191511e+01	0	0
1514063	2.169000e+00	5.380405e+01	-3.440537e+00	0	0
1516016	2.169000e+00	3.108354e+01	5.168206e+00	0	0
1517969	2.168743e+00	1.263588e+01	-2.676411e+00	0	0
1519922	2.168000e+00	1.010700e+01	1.268133e+01	0	0
1521875	2.168000e+00	-4.367505e+00	6.907138e+01	0	0
1523828	2.168000e+00	-1.329920e+01	3.888587e+01	0	0
1525781	2.168000e+00	-2.173517e+01	-1.429884e+00	0	0
1527734	2.168000e+00	-2.502328e+01	-2.248494e+00	0	0
1529688	2.168000e+00	-4.672785e+01	-4.905838e+01	0	0
1531641	2.168000e+00	-8.035897e+01	-6.317588e+01	0	0
1533594	2.168000e+00	-6.773957e+01	-2.939017e+01	0	0
1535547	2.168000e+00	-7.413738e+01	1.107499e+01	0	0
1537500	2.168000e+00	-9.103993e+01	9.605686e+00	0	0
1539453	2.168000e+00	-9.660308e+01	4.343204e+00	0	0
1541406	2.168000e+00	-1.021613e+02	2.896669e+01	0	0
1543359	2.168000e+00	-9.122650e+01	7.195986e+01	0	0
1545313	2.168000e+00	-9.187487e+01	-9.290226e+00	0	0
1547266	2.168000e+00	-8.247717e+01	6.784074e+00	0	0
1549219	2.168000e+00	-8.213585e+01	-1.983977e+01	0	0
1551172	2.168000e+00	-9.542184e+01	-7.488302e+01	0	0
1553125	2.168000e+00	-9.745031e+01	-2.067734e+01	0	0
1555078	2.168000e+00	-1.144816e+02	-5.769619e+00	0	0
1557031	2.168000e+00	-1.109262e+02	-1.002344e+01	0	0
1558984	2.168000e+00	-1.122166e+02	-8.068381e+00	0	0
1560938	2.168000e+00	-1.137645e+02	2.962796e+01	0	0
1562891	2.168000e+00	-9.647661e+01	5.207224e+01	0	0
1564844	2.168000e+00	-9.601217e+01	-9.774785e+00	0	0
1566797	2.168000e+00	-1.023919e+02	-9.192287e-01	0	0
1568750	2.168000e+00	-1.061748e+02	-2.241448e+01	0	0
1570703	2.168000e+00	-1.041843e+02	-6.838019e+01	0	0
1572656	2.168000e+00	-1.123876e+02	-2.084412e+01	0	0
1574609	2.168000e+00	-1.200050e+02	-4.108262e+00	0	0
1576563	2.168000e+00	-1.209295e+02	-3.262113e+00	0	0
1578516	2.168000e+00	-1.263006e+02	-7.283397e+00	0	0
1580469	2.168000e+00	-1.288953e+02	1.371585e+01	0	0
1582422	2.168000e+00	-1.239316e+02	5.694736e+01	0	0
1584375	2.168000e+00	-1.097675e+02	3.489333e+00	0	0
1586328	2.168000e+00	-1.198395e+02	3.607087e+00	0	0
1588281	2.168000e+00	-1.159573e+02	-1.523658e+01	0	0
1590234	2.168000e+00	-1.253140e+02	-6.859313e+01	0	0
1592188	2.168000e+00	-1.249748e+02	-3.755564e+01	0	0
1594141	2.168000e+00	-1.246436e+02	-8.299672e+00	0	0
1596094	2.168000e+00	-1.373198e+02	1.415132e+00	0	0
1598047	2.167740e+00	-1.326563e+02	-4.551198e+00	0	0
1600000	2.167000e+00	-1.432439e+02	1.618019e+01	0	0
1601953	2.167000e+00	-1.299220e+02	7.383210e+01	0	0
1603906	2.167000e+00	-1.282134e+02	3.157048e+01	0	0
1605859	2.167000e+00	-1.185243e+02	3.452029e-01	0	0
1607813	2.167000e+00	-1.082264e+02	-3.322560e+00	0	0
1609766	2.167000e+00	-1.124924e+02	-5.119015e+01	0	0
1611719	2.167000e+00	-1.179810e+02	-6.473282e+01	0	0
1613672	2.167000e+00	-1.289005e+02	-1.583981e+01	0	0
1615625	2.167000e+00	-1.368050e+02	2.662139e+00	0	0
1617578	2.167000e+00	-1.193010e+02	-4.179959e-01	0	0
1619531	2.167000e+00	-1.043160e+02	6.371214e-01	0	0
1621484	2.167000e+00	-1.143765e+02	4.019871e+01	0	0
1623438	2.167000e+00	-1.138111e+02	6.377477e+01	0	0
1625391	2.167000e+00	-1.174584e+02	-9.211620e+00	0	0
1627344	2.167000e+00	-1.002049e+02	6.185729e+00	0	0
1629297	2.167000e+00	-1.036190e+02	-1.819822e+01	0	0
1631250	2.167000e+00	-1.145680e+02	-7.494320e+01	0	0
1633203	2.167000e+00	-1.035975e+02	-2.970562e+01	0	0
1635156	2.167000e+00	-1.131615e+02	-1.061714e+00	0	0
1637109	2.167000e+00	-1.207114e+02	-5.135283e+00	0	0
1639063	2.167000e+00	-1.143598e+02	-7.446818e+00	0	0
1641016	2.167000e+00	-1.204394e+02	1.963860e+01	0	0
1642969	2.167000e+00	-1.171806e+02	5.380382e+01	0	0
1644922	2.167000e+00	-1.096429e+02	-9.296553e+00	0	0
1646875	2.167000e+00	-1.030852e+02	5.284616e+00	0	0
1648828	2.167000e+00	-9.656124e+01	-1.493093e+01	0	0
1650781	2.167000e+00	-9.051036e+01	-6.217476e+01	0	0
1652734	2.167000e+00	-8.406845e+01	-2.849096e+01	0	0
1654688	2.167000e+00	-9.227650e+01	-1.187881e+00	0	0
1656641	2.167000e+00	-9.563351e+01	4.321916e+00	0	0
1658594	2.167000e+00	-9.430503e+01	-2.337174e+00	0	0
1660547	2.167000e+00	-9.784927e+01	1.763377e+01	0	0
1662500	2.166738e+00	-9.538002e+01	5.506561e+01	0	0
1664453	2.166262e+00	-8.651329e+01	-4.415890e+00	0	0
1666406	2.166738e+00	-8.170437e+01	4.828766e+00	0	0
1668359	2.166000e+00	-9.081562e+01	-1.563433e+01	0	0
1670313	2.166000e+00	-9.141150e+01	-6.486383e+01	0	0
1672266	2.166000e+00	-9.684047e+01	-3.694223e+01	0	0
1674219	2.166000e+00	-9.055105e+01	-1.819235e+01	0	0
1676172	2.166000e+00	-9.481127e+01	1.776860e-01	0	0
1678125	2.166262e+00	-9.539594e+01	-6.994062e+00	0	0
1680078	2.166738e+00	-9.872944e+01	1.076009e+01	0	0
1682031	2.166000e+00	-8.718749e+01	6.743547e+01	0	0
1683984	2.166000e+00	-8.045258e+01	3.838199e+01	0	0
1685938	2.166000e+00	-6.822287e+01	-1.103215e+00	0	0
1687891	2.166000e+00	-6.680221e+01	-1.333013e+01	0	0
1689844	2.166000e+00	-7.131532e+01	-7.158109e+01	0	0
1691797	2.166000e+00	-6.937519e+01	-5.997826e+01	0	0
1693750	2.166000e+00	-8.825972e+01	-2.678695e+01	0	0
1695703	2.166000e+00	-8.619923e+01	8.943285e+00	0	0
1697656	2.166000e+00	-1.062627e+02	3.121120e+00	0	0
1699609	2.166000e+00	-9.693634e+01	6.220804e+00	0	0
1701563	2.166000e+00	-1.031851e+02	4.653962e+01	0	0
1703516	2.166000e+00	-8.903492e+01	6.030835e+01	0	0
1705469	2.166000e+00	-8.447946e+01	-9.889414e+00	0	0
1707422	2.166000e+00	-7.124916e+01	6.371395e+00	0	0
1709375	2.166000e+00	-8.185439e+01	-2.547143e+01	0	0
1711328	2.166000e+00	-8.621271e+01	-7.367046e+01	0	0
1713281	2.166000e+00	-9.505017e+01	-4.718275e+00	0	0
1715234	2.166000e+00	-9.805134e+01	-9.017894e+00	0	0
1717188	2.166000e+00	-9.123104e+01	-1.910356e+00	0	0
1719141	2.166000e+00	-1.061848e+02	-5.240817e+00	0	0
1721094	2.166000e+00	-1.011717e+02	1.909856e+01	0	0
1723047	2.166000e+00	-9.746135e+01	5.846093e+01	0	0
1725000	2.166000e+00	-8.192697e+01	-9.027575e+00	0	0
1726953	2.166000e+00	-8.166824e+01	1.091765e+01	0	0
1728906	2.166000e+00	-8.219634e+01	-1.029600e+01	0	0
1730859	2.166000e+00	-8.846959e+01	-5.982362e+01	0	0
1732813	2.166000e+00	-8.685346e+01	-1.713355e+01	0	0
1734766	2.166000e+00	-8.744210e+01	3.134885e+00	0	0
1736719	2.166000e+00	-9.551912e+01	2.469893e-01	0	0
1738672	2.166000e+00	-1.100190e+02	-4.397929e+00	0	0
1740625	2.166000e+00	-9.774965e+01	1.738991e+01	0	0
1742578	2.165736e+00	-1.015665e+02	6.236007e+01	0	0
1744531	2.165000e+00	-8.830484e+01	4.976672e+00	0	0
1746484	2.165000e+00	-8.912305e+01	1.112093e+00	0	0
1748438	2.165000e+00	-9.666407e+01	-1.945384e+01	0	0
1750391	2.165265e+00	-1.051472e+02	-7.700914e+01	0	0
1752344	2.165735e+00	-1.105592e+02	-4.043811e+01	0	0
1754297	2.165000e+00	-1.054443e+02	1.428103e+00	0	0
1756250	2.165000e+00	-1.104215e+02	-1.034162e+00	0	0
1758203	2.165000e+00	-1.030606e+02	-3.968212e+00	0	0
1760156	2.165000e+00	-9.802632e+01	1.671809e+01	0	0
1762109	2.165000e+00	-1.000753e+02	6.983209e+01	0	0
1764063	2.165000e+00	-9.866236e+01	2.231939e+01	0	0
1766016	2.165000e+00	-9.773767e+01	5.346205e-02	0	0
1767969	2.165000e+00	-9.620387e+01	-9.832735e+00	0	0
1769922	2.165000e+00	-1.041706e+02	-6.178846e+01	0	0
1771875	2.165000e+00	-1.139674e+02	-6.470291e+01	0	0
1773828	2.165000e+00	-1.134281e+02	-2.396063e+01	0	0
1775781	2.165000e+00	-1.153383e+02	5.303917e+00	0	0
1777734	2.165000e+00	-1.218916e+02	-1.665839e+00	0	0
1779688	2.165000e+00	-1.206864e+02	7.135565e+00	0	0
1781641	2.165000e+00	-1.051097e+02	5.844841e+01	0	0
1783594	2.165000e+00	-1.105409e+02	5.867807e+01	0	0
1785547	2.165000e+00	-1.104673e+02	-9.205297e+00	0	0
1787500	2.165000e+00	-1.063907e+02	6.678155e+00	0	0
1789453	2.165000e+00	-1.080626e+02	-1.947560e+01	0	0
1791406	2.165000e+00	-1.187999e+02	-7.451096e+01	0	0
1793359	2.165000e+00	-1.131336e+02	-2.206415e+01	0	0
1795313	2.165000e+00	-1.132440e+02	1.088890e+00	0	0
1797266	2.165000e+00	-1.097771e+02	4.469724e-01	0	0
1799219	2.165000e+00	-1.234206e+02	-5.240700e+00	0	0
1801172	2.165000e+00	-1.186284e+02	1.910222e+01	0	0
1803125	2.165000e+00	-1.119020e+02	5.869541e+01	0	0
1805078	2.165000e+00	-1.105814e+02	-9.997761e+00	0	0
1807031	2.165000e+00	-1.055808e+02	6.544221e+00	0	0
1808984	2.165000e+00	-9.283950e+01	-1.616069e+01	0	0
1810938	2.165000e+00	-1.071450e+02	-6.499064e+01	0	0
1812891	2.165000e+00	-1.090491e+02	-1.946322e+01	0	0
1814844	2.165000e+00	-1.076471e+02	1.558697e+00	0	0
1816797	2.165000e+00	-1.203036e+02	4.936991e-01	0	0
1818750	2.165000e+00	-1.156468e+02	-3.671929e+00	0	0
1820703	2.165000e+00	-1.191691e+02	1.528211e+01	0	0
1822656	2.165000e+00	-1.073427e+02	6.629385e+01	0	0
1824609	2.165000e+00	-1.132693e+02	2.539998e+01	0	0
1826563	2.165000e+00	-1.041592e+02	9.056573e-01	0	0
1828516	2.165000e+00	-1.070707e+02	-1.616174e+01	0	0
1830469	2.165000e+00	-1.056975e+02	-6.618874e+01	0	0
1832422	2.165000e+00	-1.026900e+02	-2.710106e+01	0	0
1834375	2.164733e+00	-1.144938e+02	-7.234434e+00	0	0
1836328	2.164267e+00	-1.166964e+02	-8.559525e-01	0	0
1838281	2.164733e+00	-1.074867e+02	-5.426242e+00	0	0
1840234	2.164267e+00	-1.050113e+02	1.410631e+01	0	0
1842188	2.164732e+00	-7.749225e+01	6.957220e+01	0	0
1844141	2.164000e+00	-6.616355e+01	3.331423e+01	0	0
1846094	2.164000e+00	-2.009523e+01	-4.923498e-01	0	0
1848047	2.164000e+00	7.324674e+00	-1.378829e+01	0	0
1850000	2.164000e+00	2.730284e+01	-7.371345e+01	0	0
1851953	2.164000e+00	2.979596e+01	-5.965271e+01	0	0
1853906	2.164000e+00	2.163366e+01	-2.125083e+01	0	0
1855859	2.164000e+00	3.764434e+01	9.955480e+00	0	0
1857813	2.164000e+00	2.044524e+01	3.226186e+00	0	0
1859766	2.164000e+00	2.837572e+01	1.164033e+01	0	0
1861719	2.164000e+00	2.717751e+01	6.242506e+01	0	0
1863672	2.164000e+00	2.384156e+01	6.067053e+01	0	0
1865625	2.164000e+00	4.496097e+01	-9.209932e+00	0	0
1867578	2.164000e+00	6.248673e+01	6.584035e+00	0	0
1869531	2.164000e+00	7.071288e+01	-2.455905e+01	0	0
1871484	2.164000e+00	7.588379e+01	-8.410374e+01	0	0
1873438	2.164000e+00	7.766103e+01	-3.006734e+01	0	0
1875391	2.164000e+00	8.541414e+01	-5.614070e+00	0	0
1877344	2.164000e+00	7.920236e+01	-3.744686e+00	0	0
1879297	2.164000e+00	8.327466e+01	-4.225189e+00	0	0
1881250	2.164000e+00	1.068863e+02	2.467644e+01	0	0
1883203	2.164000e+00	1.282244e+02	5.999661e+01	0	0
1885156	2.164000e+00	1.319631e+02	-8.869007e+00	0	0
1887109	2.164000e+00	1.281294e+02	1.256081e+01	0	0
1889063	2.164000e+00	1.230896e+02	-1.024311e+01	0	0
1891016	2.164000e+00	1.171366e+02	-5.933881e+01	0	0
1892969	2.164000e+00	1.193677e+02	-1.148276e+01	0	0
1894922	2.164000e+00	1.200997e+02	3.876015e+00	0	0
1896875	2.164000e+00	9.425364e+01	6.349646e-01	0	0
1898828	2.164000e+00	7.398459e+01	-4.664940e+00	0	0
1900781	2.164000e+00	7.692150e+01	1.964787e+01	0	0
1902734	2.164000e+00	8.431420e+01	6.475088e+01	0	0
1904688	2.164000e+00	8.226052e+01	-1.615535e+00	0	0
1906641	2.164000e+00	6.970871e+01	-1.043865e+00	0	0
1908594	2.164000e+00	4.136208e+01	-2.451936e+01	0	0
1910547	2.164000e+00	1.446202e+01	-8.083400e+01	0	0
1912500	2.164000e+00	-1.147794e+01	-3.138877e+01	0	0
1914453	2.164000e+00	-2.852652e+01	3.068001e+00	0	0
1916406	2.164000e+00	-4.639792e+01	3.934783e-01	0	0
1918359	2.164000e+00	-5.240689e+01	-4.847706e+00	0	0
1920313	2.164000e+00	-7.234634e+01	2.028693e+01	0	0
1922266	2.164000e+00	-9.123911e+01	7.559586e+01	0	0
1924219	2.164000e+00	-9.808772e+01	1.562811e+01	0	0
1926172	2.164000e+00	-1.101642e+02	5.293570e+00	0	0
1928125	2.164000e+00	-1.160882e+02	-1.506776e+01	0	0
1930078	2.164000e+00	-1.205770e+02	-8.647894e+01	0	0
1932031	2.164000e+00	-1.215034e+02	-6.086221e+01	0	0
1933984	2.164000e+00	-1.313781e+02	-1.325639e+01	0	0
1935938	2.164000e+00	-1.359414e+02	1.775630e+00	0	0
1937891	2.164000e+00	-1.489024e+02	-2.843003e+00	0	0
1939844	2.164000e+00	-1.616493e+02	1.052936e+01	0	0
1941797	2.164000e+00	-1.518148e+02	7.422028e+01	0	0
1943750	2.164000e+00	-1.496060e+02	6.640342e+01	0	0
1945703	2.164000e+00	-1.545846e+02	-9.200820e+00	0	0
1947656	2.164000e+00	-1.408394e+02	1.674768e+00	0	0
1949609	2.164000e+00	-1.320574e+02	-3.630358e+01	0	0
1951563	2.164000e+00	-1.396451e+02	-9.607541e+01	0	0
1953516	2.164000e+00	-1.627551e+02	-5.488427e+01	0	0
1955469	2.164000e+00	-1.650907e+02	7.288100e+00	0	0
1957422	2.164000e+00	-1.734221e+02	6.434531e-01	0	0
1959375	2.164000e+00	-1.733272e+02	-4.367522e+00	0	0
1961328	2.164000e+00	-1.726415e+02	2.995064e+01	0	0
1963281	2.164000e+00	-1.729725e+02	7.925889e+01	0	0
1965234	2.164000e+00	-1.619426e+02	-1.173712e+01	0	0
1967188	2.164000e+00	-1.546787e+02	9.978328e+00	0	0
1969141	2.164000e+00	-1.512627e+02	-2.323725e+01	0	0
1971094	2.164000e+00	-1.676308e+02	-8.837694e+01	0	0
1973047	2.164000e+00	-1.699369e+02	-2.406844e+01	0	0
1975000	2.163728e+00	-1.709061e+02	2.198469e+00	0	0
1976953	2.163272e+00	-1.771353e+02	8.707775e-01	0	0
1978906	2.163728e+00	-1.735579e+02	-5.878111e+00	0	0
1980859	2.163000e+00	-1.742203e+02	2.255830e+01	0	0
1982813	2.163272e+00	-1.679499e+02	7.355298e+01	0	0
1984766	2.164000e+00	-1.609997e+02	-4.439098e-01	0	0
1986719	2.163728e+00	-1.569828e+02	5.390200e+00	0	0
1988672	2.163000e+00	-1.673142e+02	-1.953154e+01	0	0
1990625	2.163000e+00	-1.585181e+02	-7.743688e+01	0	0
1992578	2.163000e+00	-1.502488e+02	-3.376120e+01	0	0
1994531	2.163000e+00	-1.634471e+02	-5.922260e+00	0	0
1996484	2.163272e+00	-1.842869e+02	1.111383e+00	0	0
1998438	2.164000e+00	-2.211967e+02	-4.450013e+00	0	0
2000391	2.163727e+00	-2.472990e+02	1.605043e+01	0	0
2002344	2.163000e+00	-2.283735e+02	7.607515e+01	0	0
2004297	2.163000e+00	-1.927651e+02	3.743695e+01	0	0
2006250	2.163000e+00	-1.470256e+02	-1.577450e+00	0	0
2008203	2.163000e+00	-4.950449e+01	-1.804068e+01	0	0
2010156	2.163000e+00	1.398447e+01	-7.565373e+01	0	0
2012109	2.163000e+00	8.771830e+01	-4.728059e+01	0	0
2014063	2.163273e+00	1.911585e+02	-2.702794e+01	0	0
2016016	2.163727e+00	3.803273e+02	2.975898e+00	0	0
2017969	2.163000e+00	6.366089e+02	-6.601333e+00	0	0
2019922	2.163000e+00	8.964768e+02	1.282145e+01	0	0
2021875	2.163000e+00	1.156658e+03	8.179053e+01	0	0
2023828	2.163000e+00	1.437379e+03	5.933218e+01	0	0
2025781	2.163000e+00	1.702200e+03	-1.208776e+01	0	0
2027734	2.163273e+00	1.871926e+03	4.981823e+00	0	0
2029688	2.163726e+00	1.865257e+03	-2.799953e+01	0	0
2031641	2.163000e+00	1.759764e+03	-8.381559e+01	0	0
2033594	2.163000e+00	1.494549e+03	-1.448650e+01	0	0
2035547	2.163000e+00	1.143399e+03	-2.631518e+00	0	0
2037500	2.163000e+00	9.371443e+02	-3.024065e+00	0	0
2039453	2.163000e+00	7.389249e+02	-3.271897e+00	0	0
2041406	2.163000e+00	5.613219e+02	3.930152e+01	0	0
2043359	2.163000e+00	2.265269e+02	6.713076e+01	0	0
2045313	2.163274e+00	-1.073653e+02	-1.423011e+01	0	0
2047266	2.163726e+00	-2.391741e+02	5.335528e+00	0	0
2049219	2.163000e+00	-2.743255e+02	-2.680421e+01	0	0
2051172	2.163000e+00	-2.675190e+02	-7.540458e+01	0	0
2053125	2.163000e+00	-2.386302e+02	-3.857373e+00	0	0
2055078	2.163000e+00	-2.240259e+02	-4.016344e+00	0	0
2057031	2.163000e+00	-1.906366e+02	-1.680406e+00	0	0
2058984	2.163000e+00	-1.593408e+02	-5.023790e+00	0	0
2060938	2.163000e+00	-1.424722e+02	2.273099e+01	0	0
2062891	2.163000e+00	-1.035870e+02	6.927897e+01	0	0
2064844	2.163275e+00	-7.471744e+01	1.856080e+01	0	0
2066797	2.163725e+00	-7.346808e+01	2.375706e-01	0	0
2068750	2.163000e+00	-8.175069e+01	-1.808628e+01	0	0
2070703	2.163000e+00	-8.148085e+01	-7.768514e+01	0	0
2072656	2.163000e+00	-1.088646e+02	-3.855447e+01	0	0
2074609	2.163000e+00	-1.185949e+02	1.679388e+00	0	0
2076563	2.163000e+00	-1.280517e+02	-3.016576e-01	0	0
2078516	2.163275e+00	-1.321642e+02	-5.044564e+00	0	0
2080469	2.164000e+00	-1.281205e+02	1.999315e+01	0	0
2082422	2.163725e+00	-1.028144e+02	6.688874e+01	0	0
2084375	2.163275e+00	-9.734238e+01	5.474279e+00	0	0
2086328	2.163725e+00	-9.269855e+01	3.465110e+00	0	0
2088281	2.163000e+00	-8.423400e+01	-1.569897e+01	0	0
2090234	2.163275e+00	-1.087193e+02	-7.973978e+01	0	0
2092188	2.163724e+00	-1.103609e+02	-6.174199e+01	0	0
2094141	2.163276e+00	-1.038781e+02	-1.123089e+01	0	0
2096094	2.164000e+00	-1.100416e+02	1.521015e+00	0	0
2098047	2.164000e+00	-1.105331e+02	-5.149352e+00	0	0
2100000	2.164000e+00	-1.065617e+02	1.810691e+01	0	0
2101953	2.163724e+00	-1.074507e+02	8.865228e+01	0	0
2103906	2.163000e+00	-8.764003e+01	5.000589e+01	0	0
2105859	2.163276e+00	-7.299021e+01	-6.582716e+00	0	0
2107813	2.164000e+00	-7.451675e+01	-1.375614e+00	0	0
2109766	2.164000e+00	-7.026407e+01	-4.547268e+01	0	0
2111719	2.164000e+00	-8.266301e+01	-7.691337e+01	0	0
2113672	2.164000e+00	-8.798455e+01	-1.755038e+01	0	0
2115625	2.164000e+00	-9.472247e+01	4.556808e-01	0	0
2117578	2.164000e+00	-9.506061e+01	2.939694e-01	0	0
2119531	2.164000e+00	-9.333436e+01	-4.052913e+00	0	0
2121484	2.164000e+00	-8.466616e+01	3.131607e+01	0	0
2123438	2.164000e+00	-8.046649e+01	7.092360e+01	0	0
2125391	2.164000e+00	-7.309170e+01	-1.052758e+01	0	0
2127344	2.164000e+00	-5.756701e+01	8.471271e+00	0	0
2129297	2.164000e+00	-4.684636e+01	-2.120883e+01	0	0
2131250	2.164000e+00	-5.626683e+01	-7.606850e+01	0	0
2133203	2.164000e+00	-5.496280e+01	-1.713905e+01	0	0
2135156	2.164000e+00	-6.344494e+01	2.008087e+00	0	0
2137109	2.164000e+00	-6.029528e+01	3.921657e-01	0	0
2139063	2.164000e+00	-6.308914e+01	-5.255258e+00	0	0
2141016	2.164000e+00	-6.417548e+01	2.197611e+01	0	0
2142969	2.164000e+00	-5.402962e+01	6.064657e+01	0	0
2144922	2.164000e+00	-5.327137e+01	-8.376550e+00	0	0
2146875	2.164000e+00	-4.031596e+01	7.836423e+00	0	0
2148828	2.164000e+00	-3.656601e+01	-1.523184e+01	0	0
2150781	2.164000e+00	-3.007854e+01	-7.064782e+01	0	0
2152734	2.164000e+00	-3.387678e+01	-3.907236e+01	0	0
2154688	2.164000e+00	-2.081016e+01	-1.099333e+00	0	0
2156641	2.164000e+00	-2.094805e+01	3.560306e+00	0	0
2158594	2.164000e+00	-2.761723e+01	-3.783155e+00	0	0
2160547	2.164000e+00	-1.958182e+01	2.126756e+01	0	0
2162500	2.164000e+00	-2.385063e+01	6.823883e+01	0	0
2164453	2.164000e+00	-1.304407e+01	7.763794e+00	0	0
2166406	2.164000e+00	1.871562e+01	4.944537e+00	0	0
2168359	2.164000e+00	1.599983e+01	-1.971994e+01	0	0
2170313	2.164000e+00	1.971167e+01	-7.997868e+01	0	0
2172266	2.164000e+00	1.141929e+01	-5.111129e+01	0	0
2174219	2.164000e+00	5.194662e+00	-2.313913e+01	0	0
2176172	2.164000e+00	4.286980e+00	2.689279e+00	0	0
2178125	2.164000e+00	1.082402e+01	-5.196012e+00	0	0
2180078	2.164000e+00	1.960401e+01	1.857482e+01	0	0
2182031	2.164000e+00	3.241028e+01	8.591374e+01	0	0
2183984	2.164000e+00	4.157729e+01	4.849114e+01	0	0
2185938	2.164000e+00	3.982996e+01	-3.026812e+00	0	0
2187891	2.164000e+00	4.647411e+01	-8.172120e+00	0	0
2189844	2.164000e+00	4.474716e+01	-6.173215e+01	0	0
2191797	2.164000e+00	5.301634e+01	-7.681109e+01	0	0
2193750	2.164000e+00	6.656452e+01	-3.874311e+01	0	0
2195703	2.164000e+00	6.496405e+01	8.239768e+00	0	0
2197656	2.164000e+00	6.563810e+01	1.647596e+00	0	0
2199609	2.164000e+00	7.425704e+01	1.765272e+00	0	0
2201563	2.164000e+00	8.213796e+01	4.095456e+01	0	0
2203516	2.164000e+00	8.399105e+01	6.602898e+01	0	0
2205469	2.164279e+00	8.505353e+01	-1.215368e+01	0	0
2207422	2.164721e+00	1.132771e+02	7.101807e+00	0	0
2209375	2.164279e+00	1.227922e+02	-2.541403e+01	0	0
2211328	2.165000e+00	1.133507e+02	-7.522200e+01	0	0
2213281	2.165000e+00	1.143962e+02	-8.017056e+00	0	0
2215234	2.165000e+00	1.174999e+02	-2.887170e+00	0	0
2217188	2.165000e+00	1.234251e+02	-1.456069e+00	0	0
2219141	2.165000e+00	1.293081e+02	-8.388030e+00	0	0
2221094	2.165000e+00	1.444964e+02	1.770135e+01	0	0
2223047	2.165000e+00	1.652447e+02	6.423190e+01	0	0
2225000	2.165000e+00	1.803355e+02	-9.162846e-01	0	0
2226953	2.165000e+00	1.943815e+02	2.681755e+00	0	0
2228906	2.165000e+00	2.047735e+02	-2.189978e+01	0	0
2230859	2.165000e+00	2.191536e+02	-6.880920e+01	0	0
2232813	2.165000e+00	2.266519e+02	-1.699556e+01	0	0
2234766	2.165000e+00	2.164190e+02	-8.003171e+00	0	0
2236719	2.165000e+00	2.413594e+02	1.254760e+00	0	0
2238672	2.165000e+00	2.598479e+02	-5.619539e+00	0	0
2240625	2.165000e+00	2.524009e+02	1.747177e+01	0	0
2242578	2.165000e+00	2.774315e+02	7.348881e+01	0	0
2244531	2.165000e+00	3.005587e+02	2.731727e+01	0	0
2246484	2.165000e+00	3.229104e+02	2.158063e+00	0	0
2248438	2.165000e+00	3.427851e+02	-1.587852e+01	0	0
2250391	2.165000e+00	3.512780e+02	-7.532286e+01	0	0
2252344	2.165000e+00	3.645295e+02	-4.712116e+01	0	0
2254297	2.165000e+00	3.825468e+02	-1.791200e+01	0	0
2256250	2.165000e+00	3.864326e+02	5.986518e+00	0	0
2258203	2.165000e+00	3.874666e+02	-3.203854e+00	0	0
2260156	2.165281e+00	3.980352e+02	2.116214e+01	0	0
2262109	2.165719e+00	4.269370e+02	8.297685e+01	0	0
2264063	2.165000e+00	4.504347e+02	3.750762e+01	0	0
2266016	2.165281e+00	4.570785e+02	-3.302622e+00	0	0
2267969	2.166000e+00	4.695255e+02	-3.715020e+00	0	0
2269922	2.166000e+00	4.824982e+02	-4.933073e+01	0	0
2271875	2.166000e+00	4.830306e+02	-7.748854e+01	0	0
2273828	2.166000e+00	4.936513e+02	-2.531348e+01	0	0
2275781	2.166000e+00	5.071348e+02	6.147937e+00	0	0
2277734	2.166000e+00	5.093313e+02	1.491925e+00	0	0
2279688	2.166000e+00	5.185569e+02	5.998078e+00	0	0
2281641	2.166000e+00	5.305930e+02	5.402740e+01	0	0
2283594	2.166000e+00	5.387748e+02	6.748664e+01	0	0
2285547	2.166000e+00	5.554682e+02	-1.266535e+01	0	0
2287500	2.166000e+00	5.579672e+02	6.650570e+00	0	0
2289453	2.166000e+00	5.538829e+02	-2.840036e+01	0	0
2291406	2.166000e+00	5.311119e+02	-7.751109e+01	0	0
2293359	2.166000e+00	5.323131e+02	-4.705080e+00	0	0
2295313	2.166000e+00	5.289284e+02	-1.071535e+01	0	0
2297266	2.166000e+00	4.927509e+02	-7.862980e+00	0	0
2299219	2.166000e+00	4.708343e+02	-7.459229e+00	0	0
2301172	2.166000e+00	4.423669e+02	3.096958e+01	0	0
2303125	2.166000e+00	4.249251e+02	6.474623e+01	0	0
2305078	2.166000e+00	4.052419e+02	1.372651e+00	0	0
2307031	2.166282e+00	3.814280e+02	3.484215e+00	0	0
2308984	2.166718e+00	3.597199e+02	-1.884242e+01	0	0
2310938	2.166283e+00	3.291833e+02	-7.693067e+01	0	0
2312891	2.167000e+00	2.824840e+02	-3.884462e+01	0	0
2314844	2.167000e+00	2.467657e+02	-2.660837e+00	0	0
2316797	2.167000e+00	2.145263e+02	3.687427e+00	0	0
2318750	2.167000e+00	1.961769e+02	-3.279701e+00	0	0
2320703	2.167000e+00	1.677351e+02	2.247040e+01	0	0
2322656	2.167000e+00	1.399234e+02	6.576003e+01	0	0
2324609	2.167000e+00	1.155912e+02	1.188122e+00	0	0
2326563	2.167000e+00	1.042638e+02	6.561844e+00	0	0
2328516	2.167000e+00	7.942597e+01	-1.637333e+01	0	0
2330469	2.167000e+00	6.173026e+01	-7.511645e+01	0	0
2332422	2.167000e+00	5.239923e+01	-4.954789e+01	0	0
2334375	2.167000e+00	1.775485e+01	-1.794699e+01	0	0
2336328	2.167000e+00	1.194012e+01	7.738889e+00	0	0
2338281	2.167000e+00	5.021266e+00	-1.552020e+00	0	0
2340234	2.167000e+00	-1.057006e+01	2.336099e+01	0	0
2342188	2.167000e+00	-3.253308e+00	7.886530e+01	0	0
2344141	2.167283e+00	-1.693493e+01	2.925378e+01	0	0
2346094	2.167717e+00	-1.552386e+01	1.043040e+00	0	0
2348047	2.167283e+00	-2.287486e+01	-5.741407e+00	0	0
2350000	2.168000e+00	-4.377671e+01	-5.632872e+01	0	0
2351953	2.168000e+00	-4.744905e+01	-6.967719e+01	0	0
2353906	2.168000e+00	-5.899057e+01	-2.001687e+01	0	0
2355859	2.168000e+00	-5.698898e+01	2.313118e+00	0	0
2357813	2.168000e+00	-7.012661e+01	-2.107936e+00	0	0
2359766	2.168000e+00	-6.572769e+01	6.526179e+00	0	0
2361719	2.168000e+00	-7.360216e+01	5.931225e+01	0	0
2363672	2.168000e+00	-6.647088e+01	6.313661e+01	0	0
2365625	2.168000e+00	-6.493343e+01	-1.150259e+01	0	0
2367578	2.168000e+00	-5.603833e+01	6.596404e+00	0	0
2369531	2.168000e+00	-5.098121e+01	-2.439257e+01	0	0
2371484	2.168000e+00	-7.282941e+01	-8.001459e+01	0	0
2373438	2.168284e+00	-7.071148e+01	-2.051249e+01	0	0
2375391	2.168716e+00	-6.990029e+01	-8.351603e-01	0	0
2377344	2.168284e+00	-8.115733e+01	-6.826024e-01	0	0
2379297	2.169000e+00	-8.605696e+01	-4.411674e+00	0	0
2381250	2.169000e+00	-7.398593e+01	2.859330e+01	0	0
2383203	2.169000e+00	-7.720500e+01	6.546229e+01	0	0
2385156	2.169000e+00	-6.814960e+01	-1.047821e+01	0	0
2387109	2.169000e+00	-5.337388e+01	7.258188e+00	0	0
2389063	2.169000e+00	-6.270958e+01	-1.745965e+01	0	0
2391016	2.169000e+00	-7.477607e+01	-8.215478e+01	0	0
2392969	2.169000e+00	-7.940642e+01	-5.540119e+01	0	0
2394922	2.169000e+00	-8.949409e+01	-1.872718e+00	0	0
2396875	2.169000e+00	-8.984241e+01	6.253009e+00	0	0
2398828	2.169000e+00	-8.835265e+01	-2.383225e+00	0	0
2400781	2.169285e+00	-9.018447e+01	2.393812e+01	0	0
2402734	2.170000e+00	-8.481695e+01	7.307648e+01	0	0
2404688	2.170000e+00	-6.937157e+01	7.046974e+00	0	0
2406641	2.170000e+00	-5.844532e+01	5.626592e+00	0	0
2408594	2.170000e+00	-7.644922e+01	-1.973540e+01	0	0
2410547	2.170000e+00	-7.777814e+01	-8.139374e+01	0	0
2412500	2.170000e+00	-9.446712e+01	-4.829315e+01	0	0
2414453	2.170000e+00	-9.282507e+01	-2.071583e+01	0	0
2416406	2.170000e+00	-8.975404e+01	8.831876e-01	0	0
2418359	2.170000e+00	-1.067177e+02	-8.063784e+00	0	0
2420313	2.170000e+00	-9.705439e+01	1.696597e+01	0	0
2422266	2.170000e+00	-8.881367e+01	8.461780e+01	0	0
2424219	2.170000e+00	-7.592156e+01	4.441680e+01	0	0
2426172	2.170000e+00	-7.418077e+01	-1.901185e+00	0	0
2428125	2.170286e+00	-7.342935e+01	-1.037724e+01	0	0
2430078	2.170714e+00	-7.658142e+01	-6.765553e+01	0	0
2432031	2.170286e+00	-9.184489e+01	-7.515432e+01	0	0
2433984	2.171000e+00	-9.139442e+01	-3.613560e+01	0	0
2435938	2.171000e+00	-9.144916e+01	6.498647e+00	0	0
2437891	2.171000e+00	-9.831370e+01	-1.098442e+00	0	0
2439844	2.171000e+00	-9.738237e+01	4.944387e+00	0	0
2441797	2.171000e+00	-9.189502e+01	5.525878e+01	0	0
2443750	2.171000e+00	-8.410045e+01	6.660508e+01	0	0
2445703	2.171000e+00	-6.717085e+01	-9.725559e+00	0	0
2447656	2.171000e+00	-7.047881e+01	4.555468e+00	0	0
2449609	2.171000e+00	-8.618927e+01	-3.380029e+01	0	0
2451563	2.171287e+00	-8.045585e+01	-8.513337e+01	0	0
2453516	2.172000e+00	-9.053223e+01	-3.103576e+01	0	0
2455469	2.172000e+00	-8.311494e+01	3.350134e+00	0	0
2457422	2.172000e+00	-9.731230e+01	9.185435e-01	0	0
2459375	2.172000e+00	-9.450178e+01	-6.077833e+00	0	0
2461328	2.172000e+00	-7.592745e+01	2.602055e+01	0	0
2463281	2.172000e+00	-6.766793e+01	7.011671e+01	0	0
2465234	2.172000e+00	-6.399271e+01	-1.255123e+01	0	0
2467188	2.172000e+00	-6.356719e+01	7.453095e+00	0	0
2469141	2.172000e+00	-6.937333e+01	-2.283896e+01	0	0
2471094	2.172000e+00	-7.530787e+01	-8.136425e+01	0	0
2473047	2.172287e+00	-7.424095e+01	-2.904265e+01	0	0
2475000	2.173000e+00	-9.129744e+01	1.791210e+00	0	0
2476953	2.173000e+00	-8.664173e+01	-4.435346e-01	0	0
2478906	2.173000e+00	-9.158505e+01	-5.804413e+00	0	0
2480859	2.173000e+00	-8.428259e+01	2.026930e+01	0	0
2482813	2.173000e+00	-7.226642e+01	6.192814e+01	0	0
2484766	2.173000e+00	-8.017217e+01	-7.549678e-01	0	0
2486719	2.173000e+00	-6.928049e+01	5.129979e+00	0	0
2488672	2.173000e+00	-6.357934e+01	-1.748730e+01	0	0
2490625	2.173288e+00	-7.088606e+01	-7.135150e+01	0	0
2492578	2.174000e+00	-8.046517e+01	-3.864699e+01	0	0
2494531	2.174000e+00	-9.104811e+01	-5.811039e+00	0	0
2496484	2.174000e+00	-8.385777e+01	1.396557e+00	0	0
2498438	2.174000e+00	-9.817344e+01	-4.113859e+00	0	0
2500391	2.174000e+00	-9.610548e+01	1.653201e+01	0	0
2502344	2.174000e+00	-8.855936e+01	7.381552e+01	0	0
2504297	2.174000e+00	-8.490535e+01	3.765331e+01	0	0
2506250	2.174000e+00	-8.007024e+01	2.057241e-01	0	0
2508203	2.174000e+00	-7.694243e+01	-1.591925e+01	0	0
2510156	2.174000e+00	-7.926895e+01	-7.380681e+01	0	0
2512109	2.174288e+00	-8.734654e+01	-6.494729e+01	0	0
2514063	2.175000e+00	-8.738202e+01	-4.444936e+01	0	0
2516016	2.175000e+00	-1.072293e+02	8.726101e+00	0	0
2517969	2.175000e+00	-1.046893e+02	-4.449508e-01	0	0
2519922	2.175000e+00	-1.034009e+02	5.256786e+00	0	0
2521875	2.175000e+00	-9.566952e+01	5.199283e+01	0	0
2523828	2.175000e+00	-8.118520e+01	6.403520e+01	0	0
2525781	2.175000e+00	-8.648633e+01	-1.090373e+01	0	0
2527734	2.175000e+00	-8.289009e+01	8.283742e+00	0	0
2529688	2.175000e+00	-9.708797e+01	-2.436140e+01	0	0
2531641	2.175000e+00	-9.756143e+01	-8.097307e+01	0	0
2533594	2.175289e+00	-9.291562e+01	-1.999780e+01	0	0
2535547	2.176000e+00	-9.626117e+01	-7.923320e-01	0	0
2537500	2.176000e+00	-9.327478e+01	-2.747286e+00	0	0
2539453	2.176000e+00	-8.879564e+01	-8.867639e-01	0	0
2541406	2.176000e+00	-8.377249e+01	4.100331e+01	0	0
2543359	2.176000e+00	-9.014454e+01	6.102260e+01	0	0
2545313	2.176000e+00	-7.904294e+01	-1.356518e+01	0	0
2547266	2.176290e+00	-9.178907e+01	5.201227e+00	0	0
2549219	2.176710e+00	-9.012467e+01	-2.581850e+01	0	0
2551172	2.176290e+00	-8.227177e+01	-7.123516e+01	0	0
2553125	2.177000e+00	-8.260197e+01	-8.684249e+00	0	0
2555078	2.177000e+00	-9.329658e+01	-2.914320e+00	0	0
2557031	2.177000e+00	-9.311704e+01	-6.365972e-01	0	0
2558984	2.177000e+00	-9.061355e+01	-6.779857e+00	0	0
2560938	2.177000e+00	-1.178672e+02	1.986836e+01	0	0
2562891	2.177000e+00	-1.024094e+02	6.421187e+01	0	0
2564844	2.177000e+00	-1.051260e+02	4.180877e+00	0	0
2566797	2.177290e+00	-1.071443e+02	4.577425e+00	0	0
2568750	2.178000e+00	-1.063827e+02	-1.821855e+01	0	0
2570703	2.178000e+00	-9.971987e+01	-7.477451e+01	0	0
2572656	2.178000e+00	-1.047036e+02	-4.704640e+01	0	0
2574609	2.178000e+00	-1.187125e+02	-1.573206e+01	0	0
2576563	2.178000e+00	-1.276964e+02	2.982610e+00	0	0
2578516	2.178000e+00	-1.196828e+02	-5.021334e+00	0	0
2580469	2.178000e+00	-1.048649e+02	1.875493e+01	0	0
2582422	2.178291e+00	-1.028206e+02	7.693395e+01	0	0
2584375	2.179000e+00	-8.637396e+01	3.468698e+01	0	0
2586328	2.179000e+00	-9.846451e+01	3.436219e+00	0	0
2588281	2.179000e+00	-1.007188e+02	-1.454116e+01	0	0
2590234	2.179000e+00	-1.046513e+02	-7.751377e+01	0	0
2592188	2.179000e+00	-1.144248e+02	-6.000886e+01	0	0
2594141	2.179000e+00	-1.122494e+02	-2.850002e+01	0	0
2596094	2.179000e+00	-1.208312e+02	5.195280e+00	0	0
2598047	2.179291e+00	-1.353595e+02	-4.075789e+00	0	0
2600000	2.180000e+00	-1.338926e+02	1.252777e+01	0	0
2601953	2.180000e+00	-1.255984e+02	7.534147e+01	0	0
2603906	2.180000e+00	-1.170216e+02	6.183241e+01	0	0
2605859	2.180000e+00	-1.073192e+02	-1.039082e+01	0	0
2607813	2.180000e+00	-1.024347e+02	8.083291e+00	0	0
2609766	2.180000e+00	-1.106141e+02	-2.647724e+01	0	0
2611719	2.180292e+00	-1.084588e+02	-8.081510e+01	0	0
2613672	2.181000e+00	-1.133821e+02	-1.523986e+01	0	0
2615625	2.181000e+00	-1.295721e+02	-2.581914e+00	0	0
2617578	2.181000e+00	-1.194314e+02	-4.068134e+00	0	0
2619531	2.181000e+00	-1.323727e+02	-3.263654e-01	0	0
2621484	2.181000e+00	-1.183149e+02	4.582378e+01	0	0
2623438	2.181000e+00	-1.061436e+02	6.111462e+01	0	0
2625391	2.181000e+00	-1.181420e+02	-1.118887e+01	0	0
2627344	2.181292e+00	-1.166549e+02	7.508578e+00	0	0
2629297	2.182000e+00	-1.173253e+02	-2.245399e+01	0	0
2631250	2.182000e+00	-1.041592e+02	-7.237059e+01	0	0
2633203	2.182000e+00	-1.286120e+02	-1.631265e+01	0	0
2635156	2.182000e+00	-1.274543e+02	7.722919e-01	0	0
2637109	2.182000e+00	-1.093055e+02	6.956278e-01	0	0
2639063	2.182293e+00	-1.114699e+02	-5.469340e+00	0	0
2641016	2.183000e+00	-1.119601e+02	2.069374e+01	0	0
2642969	2.183000e+00	-1.092295e+02	6.567919e+01	0	0
2644922	2.183000e+00	-9.641182e+01	6.052361e+00	0	0
2646875	2.183000e+00	-8.367585e+01	3.610761e+00	0	0
2648828	2.183000e+00	-6.869605e+01	-1.871020e+01	0	0
2650781	2.183000e+00	-3.905550e+01	-7.873314e+01	0	0
2652734	2.183000e+00	-1.706594e+01	-4.689175e+01	0	0
2654688	2.183000e+00	-5.777848e+00	-5.279529e+00	0	0
2656641	2.183293e+00	1.072080e+01	1.504915e+00	0	0
2658594	2.184000e+00	1.575010e+00	-4.455694e+00	0	0
2660547	2.184000e+00	7.738281e+00	2.094573e+01	0	0
2662500	2.184000e+00	1.367859e+01	7.444154e+01	0	0
2664453	2.184000e+00	1.592547e+01	2.424703e+01	0	0
2666406	2.184000e+00	1.479855e+01	2.316384e+00	0	0
2668359	2.184293e+00	1.916559e+01	-1.167956e+01	0	0
2670313	2.185000e+00	3.802796e+01	-7.243593e+01	0	0
2672266	2.185000e+00	3.593605e+01	-6.311287e+01	0	0
2674219	2.185000e+00	4.606807e+01	-1.167292e+01	0	0
2676172	2.185000e+00	4.920648e+01	5.846940e-01	0	0
2678125	2.185000e+00	3.685774e+01	-6.246477e+00	0	0
2680078	2.185294e+00	4.491886e+01	1.805482e+01	0	0
2682031	2.186000e+00	5.619711e+01	9.247520e+01	0	0
2683984	2.186000e+00	7.377746e+01	5.734868e+01	0	0
2685938	2.186000e+00	9.784645e+01	-1.259521e+01	0	0
2687891	2.186000e+00	1.243860e+02	4.526971e+00	0	0
2689844	2.186000e+00	1.253219e+02	-2.920555e+01	0	0
2691797	2.186000e+00	1.120553e+02	-8.615704e+01	0	0
2693750	2.186294e+00	1.119665e+02	-2.188516e+01	0	0
2695703	2.187000e+00	8.866134e+01	-8.969893e-01	0	0
2697656	2.187000e+00	8.836553e+01	-2.002525e+00	0	0
2699609	2.187000e+00	7.992384e+01	-4.448772e-01	0	0
2701563	2.187000e+00	7.177098e+01	4.494709e+01	0	0
2703516	2.187294e+00	8.016013e+01	6.789291e+01	0	0
2705469	2.188000e+00	7.089082e+01	-1.230394e+01	0	0
2707422	2.188000e+00	6.749640e+01	8.183573e+00	0	0
2709375	2.188000e+00	6.013286e+01	-2.426031e+01	0	0
2711328	2.188000e+00	4.574694e+01	-8.242643e+01	0	0
2713281	2.188000e+00	1.803659e+01	-2.451642e+01	0	0
2715234	2.188000e+00	-1.073140e+01	2.005923e+00	0	0
2717188	2.188295e+00	-4.335399e+01	7.398540e-01	0	0
2719141	2.189000e+00	-7.307460e+01	-6.053908e+00	0	0
2721094	2.189000e+00	-8.273146e+01	2.430034e+01	0	0
2723047	2.189000e+00	-8.918532e+01	6.350355e+01	0	0
2725000	2.189000e+00	-8.353941e+01	-1.080315e+01	0	0
2726953	2.189000e+00	-8.667553e+01	6.996786e+00	0	0
2728906	2.189295e+00	-9.063922e+01	-1.937370e+01	0	0
2730859	2.190000e+00	-1.039014e+02	-8.459983e+01	0	0
2732813	2.190000e+00	-1.236630e+02	-5.039680e+01	0	0
2734766	2.190000e+00	-1.298472e+02	3.585595e+00	0	0
2736719	2.190000e+00	-1.500734e+02	-8.760390e-02	0	0
2738672	2.190000e+00	-1.578187e+02	-4.991042e+00	0	0
2740625	2.190295e+00	-1.585498e+02	2.218040e+01	0	0
2742578	2.191000e+00	-1.574123e+02	7.029554e+01	0	0
2744531	2.191000e+00	-1.673572e+02	9.664556e+00	0	0
2746484	2.191000e+00	-1.652879e+02	4.884428e+00	0	0
2748438	2.191000e+00	-1.619491e+02	-1.924207e+01	0	0
2750391	2.191000e+00	-1.681880e+02	-7.850027e+01	0	0
2752344	2.191296e+00	-1.590011e+02	-4.754195e+01	0	0
2754297	2.192000e+00	-1.559725e+02	-1.651365e+01	0	0
2756250	2.192000e+00	-1.716446e+02	4.197920e+00	0	0
2758203	2.192000e+00	-1.810023e+02	-3.540116e+00	0	0
2760156	2.192000e+00	-1.881605e+02	1.820683e+01	0	0
2762109	2.192000e+00	-1.938014e+02	8.478274e+01	0	0
2764063	2.192296e+00	-1.850231e+02	5.596737e+01	0	0
2766016	2.193000e+00	-1.829193e+02	-7.473758e+00	0	0
2767969	2.193000e+00	-1.881550e+02	8.285186e+00	0	0
2769922	2.193000e+00	-1.805021e+02	-2.037000e+01	0	0
2771875	2.193000e+00	-1.892587e+02	-8.312276e+01	0	0
2773828	2.193296e+00	-1.788829e+02	-3.765165e+01	0	0
2775781	2.194000e+00	-1.748066e+02	6.277306e+00	0	0
2777734	2.194000e+00	-1.962374e+02	1.480969e+00	0	0
2779688	2.194000e+00	-1.876839e+02	-2.280378e+00	0	0
2781641	2.194000e+00	-1.904385e+02	3.418137e+01	0	0
2783594	2.194000e+00	-1.891322e+02	6.947748e+01	0	0
2785547	2.194297e+00	-1.781603e+02	-1.023990e+01	0	0
2787500	2.195000e+00	-1.670738e+02	1.030424e+01	0	0
2789453	2.195000e+00	-1.664582e+02	-2.247112e+01	0	0
2791406	2.195000e+00	-1.785792e+02	-7.896897e+01	0	0
2793359	2.195000e+00	-1.731138e+02	-2.060101e+01	0	0
2795313	2.195297e+00	-1.776358e+02	3.724027e+00	0	0
2797266	2.196000e+00	-1.892934e+02	2.783445e+00	0	0
2799219	2.196000e+00	-1.890881e+02	-4.072637e+00	0	0
2801172	2.196000e+00	-1.949907e+02	2.621370e+01	0	0
2803125	2.196000e+00	-2.239677e+02	6.747452e+01	0	0
2805078	2.196000e+00	-2.519664e+02	-4.761228e+00	0	0
2807031	2.196297e+00	-2.393145e+02	8.560712e+00	0	0
2808984	2.197000e+00	-1.956840e+02	-1.907668e+01	0	0
2810938	2.197000e+00	-1.325643e+02	-7.544878e+01	0	0
2812891	2.197000e+00	-5.529721e+01	-2.896157e+01	0	0
2814844	2.197000e+00	2.377328e+01	5.062473e+00	0	0
2816797	2.197298e+00	1.079159e+02	1.926579e+00	0	0
2818750	2.198000e+00	2.110803e+02	-2.987303e+00	0	0
2820703	2.198000e+00	3.958035e+02	2.159448e+01	0	0
2822656	2.198000e+00	6.865066e+02	7.855463e+01	0	0
2824609	2.198000e+00	9.424528e+02	3.109367e+01	0	0
2826563	2.198000e+00	1.199103e+03	1.518790e+00	0	0
2828516	2.198298e+00	1.461749e+03	-1.315018e+01	0	0
2830469	2.199000e+00	1.711089e+03	-7.529460e+01	0	0
2832422	2.199000e+00	1.830794e+03	-6.038019e+01	0	0
2834375	2.199000e+00	1.760959e+03	-1.096356e+01	0	0
2836328	2.199298e+00	1.658589e+03	3.332432e+00	0	0
2838281	2.200000e+00	1.347897e+03	-2.145894e+00	0	0
2840234	2.200000e+00	1.025398e+03	1.508129e+01	0	0
2842188	2.200000e+00	8.436694e+02	7.937679e+01	0	0
2844141	2.200000e+00	6.721168e+02	6.082622e+01	0	0
2846094	2.200299e+00	5.103572e+02	-6.843359e+00	0	0
2848047	2.201000e+00	1.953392e+02	1.426008e+00	0	0
2850000	2.201000e+00	-7.625782e+01	-4.098351e+01	0	0
2851953	2.201000e+00	-2.025525e+02	-8.675361e+01	0	0
2853906	2.201000e+00	-2.629899e+02	-4.158067e+01	0	0
2855859	2.201299e+00	-2.976089e+02	6.244232e+00	0	0
2857813	2.202000e+00	-2.869578e+02	1.334341e+00	0	0
2859766	2.202000e+00	-2.579285e+02	-5.138890e+00	0	0
2861719	2.202000e+00	-2.374956e+02	2.971861e+01	0	0
2863672	2.202000e+00	-1.869795e+02	7.179703e+01	0	0
2865625	2.202299e+00	-1.426903e+02	-1.148364e+01	0	0
2867578	2.203000e+00	-1.196174e+02	8.787519e+00	0	0
2869531	2.203000e+00	-1.153325e+02	-2.648422e+01	0	0
2871484	2.203000e+00	-1.073640e+02	-8.184946e+01	0	0
2873438	2.203000e+00	-9.800939e+01	-2.339824e+01	0	0
2875391	2.203299e+00	-9.529524e+01	2.995607e+00	0	0
2877344	2.204000e+00	-1.206833e+02	1.625857e+00	0	0
2879297	2.204000e+00	-1.300105e+02	-5.050980e+00	0	0
2881250	2.204000e+00	-1.269868e+02	2.488817e+01	0	0
2883203	2.204000e+00	-1.187652e+02	7.032011e+01	0	0
2885156	2.204299e+00	-1.103548e+02	1.777740e+00	0	0
2887109	2.205000e+00	-1.095528e+02	6.484706e+00	0	0
2889063	2.205000e+00	-1.125648e+02	-2.186823e+01	0	0
2891016	2.205000e+00	-1.107998e+02	-7.228861e+01	0	0
2892969	2.205000e+00	-1.105934e+02	-2.180360e+01	0	0
2894922	2.205300e+00	-1.102312e+02	-5.380671e+00	0	0
2896875	2.206000e+00	-1.217738e+02	2.449112e+00	0	0
2898828	2.206000e+00	-1.139529e+02	-5.242637e+00	0	0
2900781	2.206000e+00	-1.099259e+02	2.244374e+01	0	0
2902734	2.206300e+00	-1.131533e+02	6.954074e+01	0	0
2904688	2.207000e+00	-1.096503e+02	1.020680e+01	0	0
2906641	2.207000e+00	-1.019306e+02	4.174626e+00	0	0
2908594	2.207000e+00	-9.839734e+01	-1.937521e+01	0	0
2910547	2.207300e+00	-1.083227e+02	-7.993629e+01	0	0
2912500	2.208000e+00	-1.140366e+02	-5.547126e+01	0	0
2914453	2.208000e+00	-9.471054e+01	-2.096618e+01	0	0
2916406	2.208000e+00	-1.050579e+02	3.512422e+00	0	0
2918359	2.208000e+00	-1.005791e+02	-4.428107e+00	0	0
2920313	2.208000e+00	-9.771077e+01	1.533502e+01	0	0
2922266	2.208301e+00	-9.978870e+01	7.955402e+01	0	0
2924219	2.209000e+00	-9.540542e+01	5.544896e+01	0	0
2926172	2.209000e+00	-9.899635e+01	-4.447487e+00	0	0
2928125	2.209000e+00	-8.903161e+01	-4.526587e+00	0	0
2930078	2.209301e+00	-8.406553e+01	-5.294904e+01	0	0
2932031	2.210000e+00	-8.217988e+01	-8.391644e+01	0	0
2933984	2.210000e+00	-7.755062e+01	-4.951908e+01	0	0
2935938	2.210000e+00	-7.899069e+01	6.629381e+00	0	0
2937891	2.210000e+00	-8.274822e+01	-2.435519e+00	0	0
2939844	2.210301e+00	-7.723296e+01	2.236044e+00	0	0
2941797	2.211000e+00	-9.236169e+01	4.987764e+01	0	0
2943750	2.211000e+00	-6.028199e+01	6.680879e+01	0	0
2945703	2.211000e+00	-5.503468e+01	-1.223371e+01	0	0
2947656	2.211000e+00	-6.145219e+01	8.191019e+00	0	0
2949609	2.211301e+00	-5.894958e+01	-2.899532e+01	0	0
2951563	2.212000e+00	-6.365797e+01	-7.815064e+01	0	0
2953516	2.212000e+00	-4.794563e+01	-8.021800e+00	0	0
2955469	2.212302e+00	-4.618667e+01	-3.573694e+00	0	0
2957422	2.213000e+00	-5.795099e+01	-7.375141e-01	0	0
2959375	2.213000e+00	-3.648932e+01	-5.605414e+00	0	0
2961328	2.213000e+00	-4.158490e+01	2.964201e+01	0	0
2963281	2.213000e+00	-3.677832e+01	6.457243e+01	0	0
2965234	2.213302e+00	-2.359387e+01	-7.585476e+00	0	0
2967188	2.214000e+00	-2.965755e+01	7.133889e+00	0	0
2969141	2.214000e+00	-2.106068e+01	-1.941050e+01	0	0
2971094	2.214000e+00	-2.458137e+01	-7.776964e+01	0	0
2973047	2.214000e+00	-2.356221e+01	-4.181876e+01	0	0
2975000	2.214302e+00	-3.037241e+01	-8.436199e+00	0	0
2976953	2.215000e+00	-3.000132e+01	1.778342e+00	0	0
2978906	2.215000e+00	-1.932597e+01	-5.570959e+00	0	0
2980859	2.215000e+00	-1.827159e+01	2.075414e+01	0	0
2982813	2.215303e+00	-3.110175e+00	7.689758e+01	0	0
2984766	2.216000e+00	1.069075e+01	2.649464e+01	0	0
2986719	2.216000e+00	2.046731e+01	1.536789e+00	0	0
2988672	2.216000e+00	1.887419e+01	-2.105763e+01	0	0
2990625	2.216303e+00	1.593936e+01	-7.648423e+01	0	0
2992578	2.217000e+00	1.420345e+01	-3.181070e+01	0	0
2994531	2.217000e+00	1.731521e+01	-7.900125e+00	0	0
2996484	2.217000e+00	2.425541e+01	9.688562e-01	0	0
2998438	2.217303e+00	2.180612e+01	-4.688752e+00	0	0
3000391	2.218000e+00	3.086527e+01	1.369027e+01	0	0
3002344	2.218000e+00	4.082313e+01	7.691770e+01	0	0
3004297	2.218000e+00	5.345532e+01	5.388198e+01	0	0
3006250	2.218000e+00	6.607143e+01	-6.080782e+00	0	0
3008203	2.218303e+00	8.744827e+01	-3.175293e+00	0	0
3010156	2.219000e+00	9.315034e+01	-5.270541e+01	0	0
3012109	2.219000e+00	8.104975e+01	-7.925485e+01	0	0
3014063	2.219000e+00	5.889217e+01	-3.691299e+01	0	0
3016016	2.219304e+00	7.851723e+01	5.220727e+00	0	0
3017969	2.220000e+00	8.661882e+01	1.242207e+00	0	0
3019922	2.220000e+00	8.169122e+01	6.863210e+00	0	0
3021875	2.220000e+00	8.727606e+01	5.609088e+01	0	0
3023828	2.220000e+00	1.011730e+02	6.981059e+01	0	0
3025781	2.220304e+00	1.279583e+02	-1.229788e+01	0	0
3027734	2.221000e+00	1.444138e+02	9.029690e+00	0	0
3029688	2.221000e+00	1.532948e+02	-2.809953e+01	0	0
3031641	2.221304e+00	1.467911e+02	-7.878071e+01	0	0
3033594	2.222000e+00	1.608757e+02	-1.070828e+01	0	0
3035547	2.222000e+00	1.659871e+02	-6.904984e+00	0	0
3037500	2.222000e+00	1.728737e+02	-8.474760e+00	0	0
3039453	2.222304e+00	1.771854e+02	-5.432042e+00	0	0
3041406	2.223000e+00	1.900980e+02	3.970777e+01	0	0
3043359	2.223000e+00	2.239818e+02	6.283720e+01	0	0
3045313	2.223000e+00	2.304522e+02	-1.693500e+00	0	0
3047266	2.223000e+00	2.454687e+02	2.507733e+00	0	0
3049219	2.223304e+00	2.525275e+02	-2.506778e+01	0	0
3051172	2.224000e+00	2.645686e+02	-7.648242e+01	0	0
3053125	2.224000e+00	2.730993e+02	-3.507666e+01	0	0
3055078	2.224000e+00	2.799979e+02	-1.580458e+01	0	0
3057031	2.224304e+00	2.902973e+02	5.613020e+00	0	0
3058984	2.225000e+00	2.850727e+02	-3.442657e+00	0	0
3060938	2.225000e+00	3.083019e+02	2.462574e+01	0	0
3062891	2.225000e+00	3.218122e+02	7.349701e+01	0	0
3064844	2.225305e+00	3.403083e+02	1.637039e+01	0	0
3066797	2.226000e+00	3.628889e+02	3.233853e+00	0	0
3068750	2.226000e+00	3.691559e+02	-2.061015e+01	0	0
3070703	2.226000e+00	3.788529e+02	-7.557690e+01	0	0
3072656	2.226305e+00	3.821305e+02	-4.175964e+01	0	0
3074609	2.227000e+00	3.979484e+02	-1.742796e+01	0	0
3076563	2.227000e+00	4.096712e+02	6.340099e+00	0	0
3078516	2.227000e+00	4.143181e+02	-2.195105e+00	0	0
3080469	2.227305e+00	4.353879e+02	2.250960e+01	0	0
3082422	2.228000e+00	4.276934e+02	8.466284e+01	0	0
3084375	2.228000e+00	4.408049e+02	4.492069e+01	0	0
3086328	2.228000e+00	4.735867e+02	1.882463e+00	0	0
3088281	2.228305e+00	4.601252e+02	-6.422439e+00	0	0
3090234	2.229000e+00	4.640864e+02	-6.327921e+01	0	0
3092188	2.229000e+00	4.577517e+02	-6.869393e+01	0	0
3094141	2.229000e+00	4.608265e+02	-2.413691e+01	0	0
3096094	2.229306e+00	4.540932e+02	6.798337e+00	0	0
3098047	2.230000e+00	4.327726e+02	1.116632e+00	0	0
3100000	2.230000e+00	4.238341e+02	4.175657e+00	0	0
3101953	2.230000e+00	4.068707e+02	5.201123e+01	0	0
3103906	2.230306e+00	4.066976e+02	6.524006e+01	0	0
3105859	2.231000e+00	3.869990e+02	-1.346447e+01	0	0
3107813	2.231000e+00	3.763723e+02	7.862195e+00	0	0
3109766	2.231000e+00	3.359462e+02	-3.137268e+01	0	0
3111719	2.231306e+00	3.074375e+02	-8.158314e+01	0	0
3113672	2.232000e+00	2.727086e+02	-1.113567e+01	0	0
3115625	2.232000e+00	2.213654e+02	-9.910209e+00	0	0
3117578	2.232000e+00	2.109827e+02	-8.803171e+00	0	0
3119531	2.232306e+00	1.898149e+02	-2.487438e+00	0	0
3121484	2.233000e+00	1.598587e+02	4.347460e+01	0	0
3123438	2.233000e+00	1.435675e+02	5.694812e+01	0	0
3125391	2.233307e+00	1.236890e+02	-4.665358e+00	0	0
3127344	2.234000e+00	1.087554e+02	3.193292e+00	0	0
3129297	2.234000e+00	8.067219e+01	-2.160048e+01	0	0
3131250	2.234000e+00	5.640354e+01	-7.560395e+01	0	0
3133203	2.234000e+00	3.262713e+01	-3.463281e+01	0	0
3135156	2.234307e+00	-1.828784e+00	-2.489327e+00	0	0
3137109	2.235000e+00	-2.260028e+01	-4.792298e-01	0	0
3139063	2.235000e+00	-4.216042e+01	-5.502645e+00	0	0
3141016	2.235000e+00	-4.590920e+01	2.023637e+01	0	0
3142969	2.235307e+00	-4.035395e+01	6.856203e+01	0	0
3144922	2.236000e+00	-3.675921e+01	1.969524e+01	0	0
3146875	2.236000e+00	-3.545400e+01	3.834710e+00	0	0
3148828	2.236000e+00	-3.969047e+01	-1.652868e+01	0	0
3150781	2.236307e+00	-5.396179e+01	-7.223710e+01	0	0
3152734	2.237000e+00	-6.133145e+01	-4.432971e+01	0	0
3154688	2.237000e+00	-8.624094e+01	-1.121232e+01	0	0
3156641	2.237308e+00	-8.774084e+01	5.547347e+00	0	0
3158594	2.238000e+00	-1.004502e+02	-2.465993e+00	0	0
3160547	2.238000e+00	-1.082573e+02	2.266395e+01	0	0
3162500	2.238000e+00	-9.144621e+01	8.441184e+01	0	0
3164453	2.238308e+00	-9.606915e+01	4.290244e+01	0	0
3166406	2.239000e+00	-1.034742e+02	-1.174974e+00	0	0
3168359	2.239000e+00	-9.878682e+01	-8.218539e+00	0	0
3170313	2.239308e+00	-1.006596e+02	-6.560188e+01	0	0
3172266	2.240000e+00	-1.039292e+02	-7.072033e+01	0	0
3174219	2.240000e+00	-1.214563e+02	-1.989396e+01	0	0
3176172	2.240000e+00	-1.294263e+02	1.835110e-01	0	0
3178125	2.240000e+00	-1.277076e+02	-6.392312e+00	0	0
3180078	2.240308e+00	-1.294977e+02	7.963440e+00	0	0
3182031	2.241000e+00	-1.248477e+02	6.989007e+01	0	0
3183984	2.241000e+00	-1.130496e+02	6.107436e+01	0	0
3185938	2.241000e+00	-1.149379e+02	-1.512478e+01	0	0
3187891	2.241309e+00	-1.182742e+02	4.000881e+00	0	0
3189844	2.242000e+00	-1.077772e+02	-3.562573e+01	0	0
3191797	2.242000e+00	-1.257050e+02	-8.306539e+01	0	0
3193750	2.242309e+00	-1.121727e+02	-8.762020e+00	0	0
3195703	2.243000e+00	-1.138496e+02	-8.419389e+00	0	0
3197656	2.243000e+00	-1.261903e+02	-5.650588e+00	0	0
3199609	2.243000e+00	-1.295608e+02	-5.245160e+00	0	0
3201563	2.243309e+00	-1.211837e+02	3.853932e+01	0	0
3203516	2.244000e+00	-1.074753e+02	6.077606e+01	0	0
3205469	2.244000e+00	-1.100817e+02	-1.262846e+01	0	0
3207422	2.244000e+00	-1.153276e+02	7.240152e+00	0	0
3209375	2.244309e+00	-1.273337e+02	-2.340781e+01	0	0
3211328	2.245000e+00	-1.414846e+02	-7.293740e+01	0	0
3213281	2.245000e+00	-1.337210e+02	-2.224499e+01	0	0
3215234	2.245309e+00	-1.386941e+02	-1.884661e+00	0	0
3217188	2.246000e+00	-1.448591e+02	9.176736e-01	0	0
3219141	2.246000e+00	-1.329126e+02	-5.881712e+00	0	0
3221094	2.246000e+00	-1.221908e+02	2.186823e+01	0	0
3223047	2.246310e+00	-1.236675e+02	6.286127e+01	0	0
3225000	2.247000e+00	-1.209421e+02	4.135432e+00	0	0
3226953	2.247000e+00	-1.189219e+02	5.566123e+00	0	0
3228906	2.247000e+00	-1.189730e+02	-1.763421e+01	0	0
3230859	2.247309e+00	-1.130106e+02	-7.490356e+01	0	0
3232813	2.248000e+00	-1.218370e+02	-4.998793e+01	0	0
3234766	2.248000e+00	-1.130471e+02	-1.245729e+01	0	0
3236719	2.248310e+00	-1.174959e+02	4.847908e+00	0	0
3238672	2.249000e+00	-1.330413e+02	-3.098931e+00	0	0
3240625	2.249000e+00	-1.398447e+02	2.149912e+01	0	0
3242578	2.249000e+00	-1.275789e+02	7.876741e+01	0	0
3244531	2.249310e+00	-1.184324e+02	3.694626e+01	0	0
3246484	2.250000e+00	-1.132392e+02	5.239621e-01	0	0
3248438	2.250000e+00	-1.108777e+02	-1.374981e+01	0	0
3250391	2.250000e+00	-1.078674e+02	-7.330742e+01	0	0
3252344	2.250310e+00	-1.045307e+02	-6.616067e+01	0	0
3254297	2.251000e+00	-1.087889e+02	-2.544363e+01	0	0
3256250	2.251000e+00	-1.169087e+02	4.240527e+00	0	0
3258203	2.251000e+00	-1.251972e+02	-3.937029e+00	0	0
3260156	2.251310e+00	-1.163388e+02	1.208933e+01	0	0
3262109	2.252000e+00	-1.024122e+02	7.342221e+01	0	0
3264063	2.252000e+00	-1.081042e+02	6.006381e+01	0	0
3266016	2.252311e+00	-1.005144e+02	-1.115793e+01	0	0
3267969	2.253000e+00	-7.991069e+01	7.207160e+00	0	0
3269922	2.253000e+00	-8.132149e+01	-3.033060e+01	0	0
3271875	2.253000e+00	-9.077894e+01	-8.597451e+01	0	0
3273828	2.253311e+00	-9.049660e+01	-2.350576e+01	0	0
3275781	2.254000e+00	-8.919656e+01	-3.016561e+00	0	0
3277734	2.254000e+00	-9.897634e+01	-4.227165e+00	0	0
3279688	2.254311e+00	-1.032381e+02	-3.506387e+00	0	0
3281641	2.255000e+00	-1.039890e+02	4.217905e+01	0	0
3283594	2.255000e+00	-9.414113e+01	6.519780e+01	0	0
3285547	2.255000e+00	-9.124995e+01	-1.249593e+01	0	0
3287500	2.255311e+00	-8.488967e+01	8.197110e+00	0	0
3289453	2.256000e+00	-8.075450e+01	-2.617532e+01	0	0
3291406	2.256000e+00	-7.844152e+01	-8.008223e+01	0	0
3293359	2.256000e+00	-6.803087e+01	-2.948808e+01	0	0
3295313	2.256312e+00	-6.541272e+01	-1.044079e+01	0	0
3297266	2.257000e+00	-8.359732e+01	2.251674e+00	0	0
3299219	2.257000e+00	-1.041244e+02	-6.299029e+00	0	0
3301172	2.257312e+00	-9.428315e+01	2.785609e+01	0	0
3303125	2.258000e+00	-8.977481e+01	6.849834e+01	0	0
3305078	2.258000e+00	-8.494372e+01	-3.879856e-01	0	0
3307031	2.258000e+00	-7.124631e+01	8.873904e+00	0	0
3308984	2.258312e+00	-7.298169e+01	-2.052538e+01	0	0
3310938	2.259000e+00	-8.483525e+01	-8.013683e+01	0	0
3312891	2.259000e+00	-8.774583e+01	-4.198009e+01	0	0
3314844	2.259000e+00	-8.047007e+01	-9.664204e-01	0	0
3316797	2.259312e+00	-8.536406e+01	5.202732e-01	0	0
3318750	2.260000e+00	-1.004367e+02	-6.292549e+00	0	0
3320703	2.260000e+00	-8.949056e+01	1.621646e+01	0	0
3322656	2.260312e+00	-7.728814e+01	7.456218e+01	0	0
3324609	2.261000e+00	-7.927901e+01	3.310904e+01	0	0
3326563	2.261000e+00	-8.097980e+01	-2.649128e+00	0	0
3328516	2.261000e+00	-7.479164e+01	-1.451246e+01	0	0
3330469	2.261313e+00	-8.079415e+01	-7.315008e+01	0	0
3332422	2.262000e+00	-8.338801e+01	-7.125327e+01	0	0
3334375	2.262000e+00	-6.654692e+01	-2.877147e+01	0	0
3336328	2.262000e+00	-7.835828e+01	7.186979e+00	0	0
3338281	2.262313e+00	-1.038025e+02	-1.596840e+00	0	0
3340234	2.263000e+00	-1.255010e+02	1.375741e+01	0	0
3342188	2.263000e+00	-1.155522e+02	7.644497e+01	0	0
3344141	2.263000e+00	-9.500143e+01	6.292844e+01	0	0
3346094	2.263313e+00	-9.514742e+01	-1.191189e+01	0	0
3348047	2.264000e+00	-8.083667e+01	8.428969e+00	0	0
3350000	2.264000e+00	-7.346668e+01	-3.078535e+01	0	0
3351953	2.264313e+00	-9.371451e+01	-8.684106e+01	0	0
3353906	2.265000e+00	-9.425442e+01	-1.811912e+01	0	0
3355859	2.265000e+00	-1.126200e+02	-4.813193e-01	0	0
3357813	2.265314e+00	-1.177414e+02	-2.118823e+00	0	0
3359766	2.266000e+00	-9.513109e+01	-4.493746e+00	0	0
3361719	2.266000e+00	-1.019582e+02	3.961337e+01	0	0
3363672	2.266000e+00	-1.081840e+02	6.573507e+01	0	0
3365625	2.266314e+00	-8.249993e+01	-1.473199e+01	0	0
3367578	2.267000e+00	-7.530621e+01	7.454596e+00	0	0
3369531	2.267000e+00	-9.253703e+01	-2.758844e+01	0	0
3371484	2.267000e+00	-1.041946e+02	-7.644681e+01	0	0
3373438	2.267314e+00	-9.304351e+01	-1.353788e+01	0	0
3375391	2.268000e+00	-9.085716e+01	-1.936250e-01	0	0
3377344	2.268000e+00	-9.780157e+01	5.593602e-01	0	0
3379297	2.268000e+00	-1.014623e+02	-6.565001e+00	0	0
3381250	2.268314e+00	-1.140127e+02	2.340920e+01	0	0
3383203	2.269000e+00	-8.573929e+01	6.501499e+01	0	0
3385156	2.269000e+00	-9.091857e+01	1.340218e+00	0	0
3387109	2.269314e+00	-9.181107e+01	4.861775e+00	0	0
3389063	2.270000e+00	-8.686884e+01	-2.249929e+01	0	0
3391016	2.270000e+00	-7.621077e+01	-7.514372e+01	0	0
3392969	2.270000e+00	-7.950821e+01	-3.653565e+01	0	0
3394922	2.270315e+00	-1.086662e+02	-1.126135e+01	0	0
3396875	2.271000e+00	-1.009953e+02	1.848502e+00	0	0
3398828	2.271000e+00	-7.439936e+01	-6.370649e+00	0	0
3400781	2.271000e+00	-7.239250e+01	2.113865e+01	0	0
3402734	2.271314e+00	-5.999639e+01	7.645131e+01	0	0
3404688	2.272000e+00	-1.928495e+01	2.736380e+01	0	0
3406641	2.272000e+00	-7.825742e+00	2.400987e+00	0	0
3408594	2.272315e+00	1.872915e+01	-1.696655e+01	0	0
3410547	2.273000e+00	1.177296e+01	-8.263952e+01	0	0
3412500	2.273000e+00	6.033488e+00	-6.898235e+01	0	0
3414453	2.273000e+00	2.677857e+01	-2.596941e+01	0	0
3416406	2.273315e+00	3.447946e+01	4.440545e+00	0	0
3418359	2.274000e+00	3.770611e+01	-4.759104e+00	0	0
3420313	2.274000e+00	2.824875e+01	1.486061e+01	0	0
3422266	2.274000e+00	4.616918e+01	8.469527e+01	0	0
3424219	2.274315e+00	6.410760e+01	6.457720e+01	0	0
3426172	2.275000e+00	7.508774e+01	-1.237121e+01	0	0
3428125	2.275000e+00	8.530420e+01	8.325060e+00	0	0
3430078	2.275000e+00	1.092693e+02	-3.370009e+01	0	0
3432031	2.275315e+00	1.088086e+02	-9.096617e+01	0	0
3433984	2.276000e+00	9.971677e+01	-1.837189e+01	0	0
3435938	2.276000e+00	9.705047e+01	-2.800670e-01	0	0
3437891	2.276316e+00	9.348209e+01	-1.838179e+00	0	0
3439844	2.277000e+00	1.055315e+02	1.931668e+00	0	0
3441797	2.277000e+00	1.380686e+02	5.364898e+01	0	0
3443750	2.277000e+00	1.465833e+02	6.728658e+01	0	0
3445703	2.277000e+00	1.357062e+02	-1.317916e+01	0	0
3447656	2.277316e+00	1.471805e+02	8.132184e+00	0	0
3449609	2.278000e+00	1.414749e+02	-2.723697e+01	0	0
3451563	2.278000e+00	1.327038e+02	-8.175169e+01	0	0
3453516	2.278316e+00	1.267365e+02	-2.242367e+01	0	0
3455469	2.279000e+00	1.184080e+02	1.075187e+00	0	0
3457422	2.279000e+00	9.784505e+01	3.914488e-02	0	0
3459375	2.279316e+00	1.018113e+02	-6.635633e+00	0	0
3461328	2.280000e+00	8.481569e+01	2.336201e+01	0	0
3463281	2.280000e+00	7.319320e+01	6.344294e+01	0	0
3465234	2.280000e+00	8.453659e+01	-3.590572e-01	0	0
3467188	2.280317e+00	5.587250e+01	4.849817e+00	0	0
3469141	2.281000e+00	1.324526e+01	-2.221371e+01	0	0
3471094	2.281000e+00	3.494513e+00	-7.148194e+01	0	0
3473047	2.281000e+00	-5.982736e+00	-2.914038e+01	0	0
3475000	2.281317e+00	-2.939904e+01	-5.270540e+00	0	0
3476953	2.282000e+00	-5.980653e+01	6.316409e-01	0	0
3478906	2.282000e+00	-6.867249e+01	-5.628223e+00	0	0
3480859	2.282000e+00	-7.974918e+01	1.844211e+01	0	0
3482813	2.282317e+00	-8.834732e+01	7.409535e+01	0	0
3484766	2.283000e+00	-7.146426e+01	3.290440e+01	0	0
3486719	2.283000e+00	-8.281318e+01	-9.084047e-01	0	0
3488672	2.283317e+00	-7.796666e+01	-1.993043e+01	0	0
3490625	2.284000e+00	-8.495679e+01	-7.688130e+01	0	0
3492578	2.284000e+00	-1.170260e+02	-5.724952e+01	0	0
3494531	2.284000e+00	-1.252686e+02	-2.871200e+01	0	0
3496484	2.284317e+00	-1.453882e+02	4.148022e+00	0	0
3498438	2.285000e+00	-1.599774e+02	-6.588155e+00	0	0
3500391	2.285000e+00	-1.623179e+02	1.880472e+01	0	0
3502344	2.285318e+00	-1.634292e+02	8.631643e+01	0	0
3504297	2.286000e+00	-1.291491e+02	5.285557e+01	0	0
3506250	2.286000e+00	-1.335195e+02	-1.038861e+01	0	0
3508203	2.286000e+00	-1.530927e+02	7.444642e+00	0	0
3510156	2.286318e+00	-1.570382e+02	-2.836163e+01	0	0
3512109	2.287000e+00	-1.718461e+02	-7.417772e+01	0	0
3514063	2.287000e+00	-1.556321e+02	-9.357282e+00	0	0
3516016	2.287000e+00	-1.617976e+02	-2.203966e+00	0	0
3517969	2.287318e+00	-1.596646e+02	-1.250752e+00	0	0
3519922	2.288000e+00	-1.591629e+02	-1.970571e+00	0	0
3521875	2.288000e+00	-1.793784e+02	3.983321e+01	0	0
3523828	2.288000e+00	-1.727398e+02	6.038230e+01	0	0
3525781	2.288318e+00	-1.460497e+02	-1.220049e+01	0	0
3527734	2.289000e+00	-1.534431e+02	7.016816e+00	0	0
3529688	2.289000e+00	-1.602231e+02	-2.422599e+01	0	0
3531641	2.289319e+00	-1.633532e+02	-7.722124e+01	0	0
3533594	2.290000e+00	-1.764069e+02	-2.787199e+01	0	0
3535547	2.290000e+00	-1.781260e+02	2.088829e+00	0	0
3537500	2.290000e+00	-1.763925e+02	3.542466e-02	0	0
3539453	2.290319e+00	-1.984160e+02	-5.889751e+00	0	0
3541406	2.291000e+00	-1.992881e+02	2.286278e+01	0	0
3543359	2.291000e+00	-1.927234e+02	5.815255e+01	0	0
3545313	2.291319e+00	-1.821105e+02	-3.343864e+00	0	0
3547266	2.292000e+00	-1.719068e+02	5.584338e+00	0	0
3549219	2.292000e+00	-1.602801e+02	-1.959912e+01	0	0
3551172	2.292000e+00	-1.459973e+02	-7.364315e+01	0	0
3553125	2.292319e+00	-1.671132e+02	-4.663585e+01	0	0
3555078	2.293000e+00	-1.846217e+02	-1.124479e+01	0	0
3557031	2.293000e+00	-2.346249e+02	2.411198e+00	0	0
3558984	2.293000e+00	-2.472224e+02	-5.513011e+00	0	0
3560938	2.293320e+00	-2.544864e+02	2.127502e+01	0	0
3562891	2.294000e+00	-2.268722e+02	6.615411e+01	0	0
3564844	2.294000e+00	-1.843174e+02	1.531399e+01	0	0
3566797	2.294000e+00	-1.047019e+02	2.802623e+00	0	0
3568750	2.294320e+00	-2.291007e+01	-2.086687e+01	0	0
3570703	2.295000e+00	8.652732e+01	-7.739946e+01	0	0
3572656	2.295000e+00	1.849519e+02	-5.557406e+01	0	0
3574609	2.295000e+00	3.698540e+02	-2.534674e+01	0	0
3576563	2.295320e+00	5.911218e+02	3.422110e+00	0	0
3578516	2.296000e+00	8.432998e+02	-6.043276e+00	0	0
3580469	2.296000e+00	1.092469e+03	1.683361e+01	0	0
3582422	2.296000e+00	1.354301e+03	8.394300e+01	0	0
3584375	2.296320e+00	1.602793e+03	5.620737e+01	0	0
3586328	2.297000e+00	1.794454e+03	-1.057925e+01	0	0
3588281	2.297000e+00	1.820472e+03	5.241167e+00	0	0
3590234	2.297320e+00	1.698913e+03	-3.313561e+01	0	0
3592188	2.298000e+00	1.470002e+03	-8.574342e+01	0	0
3594141	2.298000e+00	1.151021e+03	-2.819899e+01	0	0
3596094	2.298000e+00	9.717091e+02	2.144669e+00	0	0
3598047	2.298320e+00	7.340333e+02	-1.340650e+00	0	0
3600000	2.299000e+00	5.929657e+02	-2.476209e+00	0	0
3601953	2.299000e+00	3.306770e+02	4.218950e+01	0	0
3603906	2.299000e+00	6.224629e+01	6.607206e+01	0	0
3605859	2.299320e+00	-8.075569e+01	-1.343362e+01	0	0
3607813	2.300000e+00	-1.662455e+02	7.967395e+00	0	0
3609766	2.300000e+00	-2.327465e+02	-2.732658e+01	0	0
3611719	2.300000e+00	-2.831409e+02	-8.135672e+01	0	0
3613672	2.300321e+00	-2.700759e+02	-2.376230e+01	0	0
3615625	2.301000e+00	-2.615620e+02	1.217074e+00	0	0
3617578	2.301000e+00	-2.533981e+02	-2.854010e-01	0	0
3619531	2.301000e+00	-2.320787e+02	-6.327132e+00	0	0
3621484	2.301321e+00	-1.974438e+02	2.158649e+01	0	0
3623438	2.302000e+00	-1.663084e+02	6.232794e+01	0	0
3625391	2.302000e+00	-1.341459e+02	5.820982e+00	0	0
3627344	2.302000e+00	-1.341942e+02	3.057428e+00	0	0
3629297	2.302321e+00	-1.144840e+02	-1.980259e+01	0	0
3631250	2.303000e+00	-1.113588e+02	-6.972702e+01	0	0
3633203	2.303000e+00	-1.197770e+02	-3.704723e+01	0	0
3635156	2.303321e+00	-1.095053e+02	-6.212366e+00	0	0
3637109	2.304000e+00	-1.493259e+02	4.695352e-01	0	0
3639063	2.304000e+00	-1.537166e+02	-5.503275e+00	0	0
3641016	2.304000e+00	-1.748765e+02	1.734344e+01	0	0
3642969	2.304322e+00	-1.490522e+02	6.720865e+01	0	0
3644922	2.305000e+00	-1.195794e+02	2.792790e+01	0	0
3646875	2.305000e+00	-1.295575e+02	-5.730527e-01	0	0
3648828	2.305000e+00	-1.132328e+02	-1.921698e+01	0	0
3650781	2.305322e+00	-1.179848e+02	-7.097014e+01	0	0
3652734	2.306000e+00	-1.420559e+02	-4.208252e+01	0	0
3654688	2.306000e+00	-1.537090e+02	-1.331150e+01	0	0
3656641	2.306000e+00	-1.108595e+02	1.737491e+00	0	0
3658594	2.306322e+00	-1.329331e+02	-6.320940e+00	0	0
3660547	2.307000e+00	-1.307477e+02	1.987312e+01	0	0
3662500	2.307000e+00	-1.274338e+02	8.863980e+01	0	0
3664453	2.307000e+00	-1.298691e+02	5.176705e+01	0	0
3666406	2.307322e+00	-1.208452e+02	-9.466277e+00	0	0
3668359	2.308000e+00	-1.110169e+02	3.728126e+00	0	0
3670313	2.308000e+00	-1.063662e+02	-3.646910e+01	0	0
3672266	2.308323e+00	-1.229555e+02	-8.141278e+01	0	0
3674219	2.309000e+00	-1.281119e+02	-2.263868e+01	0	0
3676172	2.309000e+00	-1.235357e+02	1.335904e+00	0	0
3678125	2.309000e+00	-1.376512e+02	-1.372388e+00	0	0
3680078	2.309322e+00	-1.302387e+02	-1.476544e+00	0	0
3682031	2.310000e+00	-1.287718e+02	4.564512e+01	0	0
3683984	2.310000e+00	-1.172718e+02	6.676016e+01	0	0
3685938	2.310000e+00	-9.684834e+01	-1.377762e+01	0	0
3687891	2.310323e+00	-8.730579e+01	8.840589e+00	0	0
3689844	2.311000e+00	-8.680891e+01	-3.070447e+01	0	0
3691797	2.311000e+00	-8.835871e+01	-7.805573e+01	0	0
3693750	2.311000e+00	-8.993374e+01	-8.192895e+00	0	0
3695703	2.311323e+00	-9.575821e+01	-1.468258e+00	0	0
3697656	2.312000e+00	-9.827193e+01	6.923927e-01	0	0
3699609	2.312000e+00	-9.070526e+01	-7.521463e+00	0	0
3701563	2.312000e+00	-1.007444e+02	2.781439e+01	0	0
3703516	2.312000e+00	-8.998491e+01	6.186284e+01	0	0
3705469	2.312323e+00	-8.757826e+01	-1.279171e+01	0	0
3707422	2.313000e+00	-8.498426e+01	7.002772e+00	0	0
3709375	2.313000e+00	-5.697200e+01	-2.391454e+01	0	0
3711328	2.313323e+00	-7.590101e+01	-7.808527e+01	0	0
3713281	2.314000e+00	-8.173087e+01	-3.165423e+01	0	0
3715234	2.314000e+00	-7.795693e+01	2.674402e+00	0	0
3717188	2.314324e+00	-7.441641e+01	-7.163742e-01	0	0
3719141	2.315000e+00	-6.449818e+01	-6.026938e+00	0	0
3721094	2.315000e+00	-7.650028e+01	2.098735e+01	0	0
3723047	2.315000e+00	-7.967276e+01	7.017171e+01	0	0
3725000	2.315324e+00	-6.116836e+01	1.933500e+01	0	0
3726953	2.316000e+00	-5.626451e+01	1.390428e+00	0	0
3728906	2.316000e+00	-5.878436e+01	-2.137970e+01	0	0
3730859	2.316000e+00	-4.153143e+01	-7.631642e+01	0	0
3732813	2.316324e+00	-3.368394e+01	-4.329994e+01	0	0
3734766	2.317000e+00	-3.492933e+01	-1.217158e+01	0	0
3736719	2.317000e+00	-2.617925e+01	2.264127e+00	0	0
3738672	2.317000e+00	-3.125941e+01	-5.636539e+00	0	0
3740625	2.317000e+00	-3.107153e+01	2.023118e+01	0	0
3742578	2.317324e+00	-8.750874e+00	8.462023e+01	0	0
3744531	2.318000e+00	1.406239e+00	4.603508e+01	0	0
3746484	2.318000e+00	9.915496e-01	-6.884801e+00	0	0
3748438	2.318000e+00	1.535151e+01	-3.596556e+00	0	0
3750391	2.318325e+00	1.484181e+01	-4.771553e+01	0	0
3752344	2.319000e+00	2.362820e+01	-7.968992e+01	0	0
3754297	2.319000e+00	5.715808e+00	-3.394498e+01	0	0
3756250	2.319325e+00	1.951458e+01	3.108262e+00	0	0
3758203	2.320000e+00	3.125067e+01	-2.679484e+00	0	0
3760156	2.320000e+00	3.342874e+00	-8.325073e-02	0	0
3762109	2.320000e+00	6.232045e+00	4.666193e+01	0	0
3764063	2.320000e+00	2.731715e+01	6.215674e+01	0	0
3766016	2.320325e+00	4.171388e+01	-1.354989e+01	0	0
3767969	2.321000e+00	5.707751e+01	7.792432e+00	0	0
3769922	2.321000e+00	5.912541e+01	-2.999512e+01	0	0
3771875	2.321325e+00	7.356109e+01	-7.518234e+01	0	0
3773828	2.322000e+00	8.705295e+01	-9.305251e+00	0	0
3775781	2.322000e+00	9.850245e+01	-2.490994e+00	0	0
3777734	2.322000e+00	1.021569e+02	-1.931862e+00	0	0
3779688	2.322000e+00	1.032836e+02	-6.489559e+00	0	0
3781641	2.322325e+00	1.130505e+02	2.769402e+01	0	0
3783594	2.323000e+00	1.088004e+02	6.436008e+01	0	0
3785547	2.323000e+00	1.271824e+02	4.168213e+00	0	0
3787500	2.323000e+00	1.399204e+02	3.487834e+00	0	0
3789453	2.323325e+00	1.503766e+02	-2.314428e+01	0	0
3791406	2.324000e+00	1.515150e+02	-7.355590e+01	0	0
3793359	2.324000e+00	1.645929e+02	-2.648607e+01	0	0
3795313	2.324326e+00	1.771530e+02	1.844362e+00	0	0
3797266	2.325000e+00	1.781160e+02	-4.476344e-01	0	0
3799219	2.325000e+00	2.045644e+02	-6.037751e+00	0	0
3801172	2.325000e+00	2.170364e+02	2.102630e+01	0	0
3803125	2.325000e+00	2.234722e+02	6.778400e+01	0	0
3805078	2.325326e+00	2.379976e+02	1.698968e+01	0	0
3807031	2.326000e+00	2.412231e+02	1.902906e+00	0	0
3808984	2.326000e+00	2.623886e+02	-1.988598e+01	0	0
3810938	2.326326e+00	2.868441e+02	-7.921475e+01	0	0
3812891	2.327000e+00	2.823831e+02	-5.458797e+01	0	0
3814844	2.327000e+00	3.031549e+02	-1.389199e+01	0	0
3816797	2.327000e+00	2.968081e+02	1.757996e+00	0	0
3818750	2.327000e+00	3.096621e+02	-6.142137e+00	0	0
3820703	2.327326e+00	3.309691e+02	1.950397e+01	0	0
3822656	2.328000e+00	3.282891e+02	8.539526e+01	0	0
3824609	2.328000e+00	3.552176e+02	4.834087e+01	0	0
3826563	2.328000e+00	3.756535e+02	-6.876645e+00	0	0
3828516	2.328327e+00	4.118221e+02	-5.282164e+00	0	0
3830469	2.329000e+00	4.010094e+02	-5.365782e+01	0	0
3832422	2.329000e+00	3.840197e+02	-7.358063e+01	0	0
3834375	2.329000e+00	3.899071e+02	-2.317461e+01	0	0
3836328	2.329327e+00	4.097904e+02	2.708769e+00	0	0
3838281	2.330000e+00	4.251131e+02	-2.840915e+00	0	0
3840234	2.330000e+00	4.434843e+02	7.410273e+00	0	0
3842188	2.330000e+00	4.309239e+02	6.294866e+01	0	0
3844141	2.330327e+00	4.288829e+02	6.171904e+01	0	0
3846094	2.331000e+00	4.394838e+02	-1.170869e+01	0	0
3848047	2.331000e+00	4.477234e+02	8.845086e+00	0	0
3850000	2.331000e+00	4.566980e+02	-2.812423e+01	0	0
3851953	2.331327e+00	4.182965e+02	-7.996904e+01	0	0
3853906	2.332000e+00	3.954195e+02	-1.858849e+01	0	0
3855859	2.332000e+00	3.741844e+02	1.247604e+00	0	0
3857813	2.332000e+00	3.617908e+02	4.821003e-01	0	0
3859766	2.332328e+00	3.377311e+02	-5.134618e+00	0	0
3861719	2.333000e+00	2.964724e+02	3.257468e+01	0	0
3863672	2.333000e+00	2.613247e+02	6.172260e+01	0	0
3865625	2.333000e+00	2.642640e+02	-1.227843e+01	0	0
3867578	2.333000e+00	2.607876e+02	8.195760e+00	0	0
3869531	2.333327e+00	2.275783e+02	-2.609624e+01	0	0
3871484	2.334000e+00	1.972238e+02	-7.588459e+01	0	0
3873438	2.334000e+00	1.613410e+02	-3.028745e+01	0	0
3875391	2.334328e+00	1.387842e+02	-1.158377e+01	0	0
3877344	2.335000e+00	1.134470e+02	2.494264e+00	0	0
3879297	2.335000e+00	7.477764e+01	-7.293339e+00	0	0
3881250	2.335000e+00	4.756346e+01	2.536575e+01	0	0
3883203	2.335328e+00	2.521472e+01	7.255181e+01	0	0
3885156	2.336000e+00	7.994210e+00	1.031664e+01	0	0
3887109	2.336000e+00	-1.791112e+00	4.126895e+00	0	0
3889063	2.336000e+00	-1.516439e+01	-2.581245e+01	0	0
3891016	2.336328e+00	-2.244231e+01	-8.005317e+01	0	0
3892969	2.337000e+00	-3.955412e+01	-4.076279e+01	0	0
3894922	2.337000e+00	-6.976084e+01	-1.976758e+01	0	0
3896875	2.337000e+00	-8.347754e+01	3.374378e+00	0	0
3898828	2.337328e+00	-9.122829e+01	-7.455586e+00	0	0
3900781	2.338000e+00	-1.305268e+02	2.338344e+01	0	0
3902734	2.338000e+00	-1.067613e+02	8.619162e+01	0	0
3904688	2.338000e+00	-1.232709e+02	3.712549e+01	0	0
3906641	2.338329e+00	-1.315426e+02	-1.344610e+00	0	0
3908594	2.339000e+00	-1.208564e+02	-1.211136e+01	0	0
3910547	2.339000e+00	-1.388566e+02	-6.976646e+01	0	0
3912500	2.339000e+00	-1.256070e+02	-7.809372e+01	0	0
3914453	2.339329e+00	-1.458342e+02	-3.267104e+01	0	0
3916406	2.340000e+00	-1.407686e+02	4.203583e+00	0	0
3918359	2.340000e+00	-1.423082e+02	-1.099075e-01	0	0
3920313	2.340000e+00	-1.402734e+02	3.917102e+00	0	0
3922266	2.340329e+00	-1.450065e+02	5.352084e+01	0	0
3924219	2.341000e+00	-1.386715e+02	6.583247e+01	0	0
3926172	2.341000e+00	-1.531535e+02	-1.342373e+01	0	0
3928125	2.341000e+00	-1.232057e+02	8.879239e+00	0	0
3930078	2.341000e+00	-1.405598e+02	-3.027271e+01	0	0
3932031	2.341329e+00	-1.725146e+02	-7.928435e+01	0	0
3933984	2.342000e+00	-1.617418e+02	-1.411056e+01	0	0
3935938	2.342000e+00	-1.719455e+02	-2.441459e+00	0	0
3937891	2.342000e+00	-1.701710e+02	-4.049867e+00	0	0
3939844	2.342330e+00	-1.527455e+02	-4.272120e+00	0	0
3941797	2.343000e+00	-1.430334e+02	3.960097e+01	0	0
3943750	2.343000e+00	-1.683425e+02	5.810878e+01	0	0
3945703	2.343000e+00	-1.481442e+02	-1.369115e+01	0	0
3947656	2.343330e+00	-1.553496e+02	6.143587e+00	0	0
3949609	2.344000e+00	-1.467673e+02	-2.701683e+01	0	0
3951563	2.344000e+00	-1.579239e+02	-7.719758e+01	0	0
3953516	2.344330e+00	-1.587517e+02	-3.198585e+01	0	0
3955469	2.345000e+00	-1.703771e+02	-8.081292e+00	0	0
3957422	2.345000e+00	-1.720557e+02	3.540593e+00	0	0
3959375	2.345000e+00	-1.881872e+02	-6.075351e+00	0	0
3961328	2.345000e+00	-2.114382e+02	2.550295e+01	0	0
3963281	2.345330e+00	-1.762604e+02	6.733472e+01	0	0
3965234	2.346000e+00	-1.754147e+02	4.782557e+00	0	0
3967188	2.346000e+00	-1.636196e+02	4.552691e+00	0	0
3969141	2.346000e+00	-1.528087e+02	-2.407573e+01	0	0
3971094	2.346330e+00	-1.590983e+02	-7.772933e+01	0	0
3973047	2.347000e+00	-1.614547e+02	-3.673214e+01	0	0
3975000	2.347000e+00	-1.687289e+02	-8.560988e+00	0	0
3976953	2.347000e+00	-1.655325e+02	2.931383e-01	0	0
3978906	2.347330e+00	-1.706870e+02	-7.611549e+00	0	0
3980859	2.348000e+00	-1.797451e+02	2.055673e+01	0	0
3982813	2.348000e+00	-1.620542e+02	7.915644e+01	0	0
3984766	2.348000e+00	-1.614461e+02	3.487225e+01	0	0
3986719	2.348331e+00	-1.626693e+02	-2.500747e+00	0	0
3988672	2.349000e+00	-1.627411e+02	-1.106454e+01	0	0
3990625	2.349000e+00	-1.496838e+02	-6.255481e+01	0	0
3992578	2.349000e+00	-1.721366e+02	-7.018397e+01	0	0
3994531	2.349331e+00	-1.693997e+02	-2.632487e+01	0	0
3996484	2.350000e+00	-1.636634e+02	6.442799e+00	0	0
3998438	2.350000e+00	-1.783987e+02	-3.022867e+00	0	0
4000391	2.350000e+00	-1.786192e+02	1.016185e+01	0	0
4002344	2.350000e+00	-1.685745e+02	6.787950e+01	0	0
4004297	2.350331e+00	-1.353689e+02	5.716853e+01	0	0
4006250	2.351000e+00	-1.344361e+02	-1.159232e+01	0	0
4008203	2.351000e+00	-1.416871e+02	7.394853e+00	0	0
4010156	2.351331e+00	-1.480058e+02	-3.183413e+01	0	0
4012109	2.352000e+00	-1.587724e+02	-8.266550e+01	0	0
4014063	2.352000e+00	-1.317616e+02	-2.039098e+01	0	0
4016016	2.352000e+00	-1.556731e+02	-5.423865e-02	0	0
4017969	2.352000e+00	-1.549378e+02	-1.241812e+00	0	0
4019922	2.352332e+00	-1.582290e+02	-3.406151e+00	0	0
4021875	2.353000e+00	-1.699773e+02	3.962105e+01	0	0
4023828	2.353000e+00	-1.476650e+02	6.154623e+01	0	0
4025781	2.353000e+00	-1.480438e+02	-1.294516e+01	0	0
4027734	2.353332e+00	-1.212760e+02	7.963273e+00	0	0
4029688	2.354000e+00	-1.352300e+02	-2.570320e+01	0	0
4031641	2.354000e+00	-1.243021e+02	-7.890440e+01	0	0
4033594	2.354000e+00	-1.391155e+02	-2.711671e+01	0	0
4035547	2.354332e+00	-1.631941e+02	6.745176e-01	0	0
4037500	2.355000e+00	-1.671869e+02	1.287087e-01	0	0
4039453	2.355000e+00	-1.545803e+02	-7.190949e+00	0	0
4041406	2.355000e+00	-1.569517e+02	2.590205e+01	0	0
4043359	2.355000e+00	-1.269177e+02	6.186811e+01	0	0
4045313	2.355333e+00	-1.131189e+02	-5.247290e+00	0	0
4047266	2.356000e+00	-1.337188e+02	6.150518e+00	0	0
4049219	2.356000e+00	-1.285352e+02	-2.419941e+01	0	0
4051172	2.356000e+00	-1.421180e+02	-7.748771e+01	0	0
4053125	2.356332e+00	-1.494581e+02	-4.395846e+01	0	0
4055078	2.357000e+00	-1.467676e+02	-1.561366e+01	0	0
4057031	2.357000e+00	-1.493802e+02	3.081980e+00	0	0
4058984	2.357332e+00	-1.433927e+02	-5.766967e+00	0	0
4060938	2.358000e+00	-1.255663e+02	2.235350e+01	0	0
4062891	2.358000e+00	-1.174068e+02	8.175628e+01	0	0
4064844	2.358000e+00	-1.247033e+02	3.757704e+01	0	0
4066797	2.358000e+00	-1.263916e+02	-2.436967e+00	0	0
4068750	2.358333e+00	-1.147337e+02	-1.305412e+01	0	0
4070703	2.359000e+00	-1.304857e+02	-6.676463e+01	0	0
4072656	2.359000e+00	-1.319680e+02	-7.359637e+01	0	0
4074609	2.359000e+00	-1.517104e+02	-3.367224e+01	0	0
4076563	2.359333e+00	-1.590298e+02	4.785798e+00	0	0
4078516	2.360000e+00	-1.439472e+02	-4.805263e+00	0	0
4080469	2.360000e+00	-1.580042e+02	1.227343e+01	0	0
4082422	2.360000e+00	-1.725779e+02	7.140392e+01	0	0
4084375	2.360000e+00	-1.323075e+02	5.661025e+01	0	0
4086328	2.360333e+00	-1.283924e+02	-1.127208e+01	0	0
4088281	2.361000e+00	-1.293985e+02	7.979358e+00	0	0
4090234	2.361000e+00	-1.339479e+02	-2.779704e+01	0	0
4092188	2.361000e+00	-1.495517e+02	-8.057240e+01	0	0
4094141	2.361334e+00	-1.469396e+02	-2.400475e+01	0	0
4096094	2.362000e+00	-1.496626e+02	8.722486e-01	0	0
4098047	2.362000e+00	-1.377179e+02	-2.663424e+00	0	0
4100000	2.362000e+00	-1.050235e+02	-2.213594e+00	0	0
4101953	2.362000e+00	-8.662169e+01	4.129760e+01	0	0
4103906	2.362334e+00	-8.162474e+01	5.724226e+01	0	0
4105859	2.363000e+00	-5.663476e+01	-1.378117e+01	0	0
4107813	2.363000e+00	-3.614074e+01	6.393837e+00	0	0
4109766	2.363000e+00	3.835782e-01	-2.820553e+01	0	0
4111719	2.363334e+00	-6.556159e+00	-7.524303e+01	0	0
4113672	2.364000e+00	-3.326710e+01	-1.921262e+01	0	0
4115625	2.364000e+00	-5.281843e+01	3.098494e-01	0	0
4117578	2.364000e+00	-4.062320e+01	3.079283e-01	0	0
4119531	2.364334e+00	-2.215035e+01	-6.930305e+00	0	0
4121484	2.365000e+00	-3.074083e+00	2.590537e+01	0	0
4123438	2.365000e+00	-1.206607e+00	6.536002e+01	0	0
4125391	2.365000e+00	9.415229e+00	6.832401e-01	0	0
4127344	2.365335e+00	4.477899e+01	5.444312e+00	0	0
4129297	2.366000e+00	6.122215e+01	-2.463482e+01	0	0
4131250	2.366000e+00	4.124627e+01	-7.879172e+01	0	0
4133203	2.366000e+00	3.209782e+01	-4.320429e+01	0	0
4135156	2.366000e+00	2.465391e+01	-1.509521e+01	0	0
4137109	2.366335e+00	3.358178e+01	2.760992e+00	0	0
4139063	2.367000e+00	3.848378e+01	-6.980929e+00	0	0
4141016	2.367000e+00	5.216501e+01	2.389924e+01	0	0
4142969	2.367000e+00	7.698650e+01	7.843352e+01	0	0
4144922	2.367000e+00	9.569830e+01	2.676648e+01	0	0
4146875	2.367335e+00	1.187626e+02	2.646729e+00	0	0
4148828	2.368000e+00	8.740700e+01	-1.733622e+01	0	0
4150781	2.368000e+00	7.796548e+01	-7.971701e+01	0	0
4152734	2.368000e+00	7.895424e+01	-7.113405e+01	0	0
4154688	2.368335e+00	7.103842e+01	-2.914845e+01	0	0
4156641	2.369000e+00	8.670478e+01	5.322669e+00	0	0
4158594	2.369000e+00	7.560392e+01	-5.116702e+00	0	0
4160547	2.369000e+00	2.623694e+01	1.438173e+01	0	0
4162500	2.369335e+00	3.186324e+01	8.015979e+01	0	0
4164453	2.370000e+00	1.789116e+00	6.166636e+01	0	0
4166406	2.370000e+00	2.234836e+01	-1.219626e+01	0	0
4168359	2.370000e+00	1.865248e+01	8.821398e+00	0	0
4170313	2.370000e+00	-3.280165e+01	-3.117632e+01	0	0
4172266	2.370336e+00	-3.645477e+01	-9.001147e+01	0	0
4174219	2.371000e+00	-7.449483e+01	-2.798598e+01	0	0
4176172	2.371000e+00	-1.139396e+02	4.304454e-01	0	0
4178125	2.371000e+00	-1.173568e+02	-2.981219e+00	0	0
4180078	2.371336e+00	-1.411726e+02	-4.571798e+00	0	0
4182031	2.372000e+00	-1.478912e+02	4.183449e+01	0	0
4183984	2.372000e+00	-1.354340e+02	6.496333e+01	0	0
4185938	2.372000e+00	-1.108090e+02	-1.299205e+01	0	0
4187891	2.372000e+00	-1.231683e+02	8.721987e+00	0	0
4189844	2.372336e+00	-1.538868e+02	-2.881421e+01	0	0
4191797	2.373000e+00	-1.643764e+02	-8.188135e+01	0	0
4193750	2.373000e+00	-1.685865e+02	-2.391072e+01	0	0
4195703	2.373000e+00	-1.696777e+02	5.920326e-01	0	0
4197656	2.373336e+00	-1.701235e+02	6.101517e-01	0	0
4199609	2.374000e+00	-1.835913e+02	-7.278917e+00	0	0
4201563	2.374000e+00	-1.996140e+02	2.769285e+01	0	0
4203516	2.374000e+00	-1.922529e+02	6.868851e+01	0	0
4205469	2.374000e+00	-2.068139e+02	4.687339e-01	0	0
4207422	2.374000e+00	-2.040552e+02	5.868383e+00	0	0
4209375	2.374337e+00	-2.029570e+02	-2.557707e+01	0	0
4211328	2.375000e+00	-1.927285e+02	-8.323518e+01	0	0
4213281	2.375000e+00	-2.159836e+02	-4.566770e+01	0	0
4215234	2.375337e+00	-1.902079e+02	-1.333146e+01	0	0
4217188	2.376000e+00	-1.963436e+02	3.633636e+00	0	0
4219141	2.376000e+00	-2.091622e+02	-6.483954e+00	0	0
4221094	2.376000e+00	-2.107250e+02	2.677610e+01	0	0
4223047	2.376000e+00	-2.066718e+02	8.155458e+01	0	0
4225000	2.376337e+00	-1.834004e+02	2.298196e+01	0	0
4226953	2.377000e+00	-1.837613e+02	2.903006e+00	0	0
4228906	2.377000e+00	-1.834486e+02	-2.726044e+01	0	0
4230859	2.377000e+00	-2.057880e+02	-8.604719e+01	0	0
4232813	2.377337e+00	-2.478650e+02	-5.637859e+01	0	0
4234766	2.378000e+00	-2.362424e+02	-3.431328e+01	0	0
4236719	2.378000e+00	-2.169029e+02	5.672471e+00	0	0
4238672	2.378000e+00	-2.144563e+02	-6.150610e+00	0	0
4240625	2.378000e+00	-2.304060e+02	1.791961e+01	0	0
4242578	2.378337e+00	-2.184956e+02	8.820042e+01	0	0
4244531	2.379000e+00	-1.941574e+02	6.176896e+01	0	0
4246484	2.379000e+00	-2.247127e+02	-1.208068e+01	0	0
4248438	2.379000e+00	-1.785097e+02	8.954350e+00	0	0
4250391	2.379000e+00	-1.800998e+02	-3.081057e+01	0	0
4252344	2.379338e+00	-2.367392e+02	-9.333648e+01	0	0
4254297	2.380000e+00	-2.549793e+02	-3.238894e+01	0	0
4256250	2.380000e+00	-3.047960e+02	3.578381e+00	0	0
4258203	2.380000e+00	-3.309872e+02	-1.533478e+00	0	0
4260156	2.380338e+00	-3.175392e+02	-4.752676e-01	0	0
4262109	2.381000e+00	-2.838284e+02	4.953356e+01	0	0
4264063	2.381000e+00	-2.206012e+02	6.687839e+01	0	0
4266016	2.381000e+00	-1.037586e+02	-1.354162e+01	0	0
4267969	2.381000e+00	3.258533e+01	9.203859e+00	0	0
4269922	2.381338e+00	1.632403e+02	-3.006202e+01	0	0
4271875	2.382000e+00	3.068826e+02	-8.442879e+01	0	0
4273828	2.382000e+00	5.000981e+02	-2.491961e+01	0	0
4275781	2.382000e+00	7.479659e+02	-5.430656e-01	0	0
4277734	2.382338e+00	1.001693e+03	8.156629e-01	0	0
4279688	2.383000e+00	1.271948e+03	-7.038409e+00	0	0
4281641	2.383000e+00	1.492575e+03	2.695980e+01	0	0
4283594	2.383000e+00	1.733968e+03	7.399825e+01	0	0
4285547	2.383000e+00	1.822445e+03	1.091149e+01	0	0
4287500	2.383339e+00	1.743329e+03	3.743107e+00	0	0
4289453	2.384000e+00	1.570049e+03	-2.361973e+01	0	0
4291406	2.384000e+00	1.218779e+03	-8.477568e+01	0	0
4293359	2.384000e+00	9.693128e+02	-4.304733e+01	0	0
4295313	2.384000e+00	8.084282e+02	3.148743e-01	0	0
4297266	2.384339e+00	6.238522e+02	1.664521e-01	0	0
4299219	2.385000e+00	4.202268e+02	-6.000958e+00	0	0
4301172	2.385000e+00	1.442078e+02	2.332765e+01	0	0
4303125	2.385000e+00	-6.107853e+01	7.396157e+01	0	0
4305078	2.385339e+00	-1.682870e+02	2.251477e+01	0	0
4307031	2.386000e+00	-2.642097e+02	1.570408e+00	0	0
4308984	2.386000e+00	-3.147060e+02	-1.976863e+01	0	0
4310938	2.386000e+00	-3.237222e+02	-7.780844e+01	0	0
4312891	2.386000e+00	-3.186753e+02	-6.566611e+01	0	0
4314844	2.386340e+00	-3.102341e+02	-2.952430e+01	0	0
4316797	2.387000e+00	-3.345153e+02	5.021283e+00	0	0
4318750	2.387000e+00	-3.164781e+02	-6.790403e+00	0	0
4320703	2.387000e+00	-2.777989e+02	2.186533e+01	0	0
4322656	2.387000e+00	-1.933105e+02	8.648018e+01	0	0
4324609	2.387339e+00	-1.412770e+02	4.743545e+01	0	0
4326563	2.388000e+00	-9.872217e+01	-9.333696e+00	0	0
4328516	2.388000e+00	-9.326813e+01	7.672003e+00	0	0
4330469	2.388000e+00	-1.208615e+02	-2.755300e+01	0	0
4332422	2.388000e+00	-1.617522e+02	-7.895711e+01	0	0
4334375	2.388340e+00	-1.673462e+02	-2.319141e+01	0	0
4336328	2.389000e+00	-1.829522e+02	1.739814e+00	0	0
4338281	2.389000e+00	-2.123176e+02	-1.461014e+00	0	0
4340234	2.389000e+00	-1.987333e+02	-2.712635e+00	0	0
4342188	2.389340e+00	-2.011857e+02	4.274643e+01	0	0
4344141	2.390000e+00	-2.115195e+02	6.253330e+01	0	0
4346094	2.390000e+00	-2.469085e+02	-1.278630e+01	0	0
4348047	2.390000e+00	-2.241585e+02	9.022031e+00	0	0
4350000	2.390000e+00	-1.958812e+02	-2.945665e+01	0	0
4351953	2.390340e+00	-1.775063e+02	-7.857300e+01	0	0
4353906	2.391000e+00	-2.203801e+02	-1.753863e+01	0	0
4355859	2.391000e+00	-1.959296e+02	9.003716e-01	0	0
4357813	2.391000e+00	-1.753499e+02	8.618810e-01	0	0
4359766	2.391341e+00	-2.126930e+02	-7.213956e+00	0	0
4361719	2.392000e+00	-2.035757e+02	2.817848e+01	0	0
4363672	2.392000e+00	-1.788402e+02	6.479644e+01	0	0
4365625	2.392000e+00	-1.711611e+02	-3.764915e+00	0	0
4367578	2.392000e+00	-1.684471e+02	6.884497e+00	0	0
4369531	2.392341e+00	-1.627519e+02	-2.334745e+01	0	0
4371484	2.393000e+00	-1.672602e+02	-8.219958e+01	0	0
4373438	2.393000e+00	-1.581364e+02	-4.181385e+01	0	0
4375391	2.393000e+00	-1.545163e+02	-5.127270e-01	0	0
4377344	2.393000e+00	-1.804406e+02	4.709263e-01	0	0
4379297	2.393341e+00	-1.883457e+02	-5.999155e+00	0	0
4381250	2.394000e+00	-1.834301e+02	2.378066e+01	0	0
4383203	2.394000e+00	-1.504908e+02	7.698988e+01	0	0
4385156	2.394000e+00	-1.615069e+02	2.532695e+01	0	0
4387109	2.394000e+00	-1.691617e+02	1.715508e+00	0	0
4389063	2.394342e+00	-1.402023e+02	-2.437940e+01	0	0
4391016	2.395000e+00	-1.312227e+02	-8.101729e+01	0	0
4392969	2.395000e+00	-1.366006e+02	-5.078026e+01	0	0
4394922	2.395000e+00	-1.522294e+02	-2.313842e+01	0	0
4396875	2.395000e+00	-1.416261e+02	4.481979e+00	0	0
4398828	2.395342e+00	-1.257151e+02	-7.279308e+00	0	0
4400781	2.396000e+00	-1.267122e+02	2.546850e+01	0	0
4402734	2.396000e+00	-1.122472e+02	9.578380e+01	0	0
4404688	2.396000e+00	-1.242532e+02	4.872372e+01	0	0
4406641	2.396000e+00	-1.393950e+02	-8.486840e+00	0	0
4408594	2.396342e+00	-1.268766e+02	4.002263e+00	0	0
4410547	2.397000e+00	-1.361852e+02	-4.103233e+01	0	0
4412500	2.397000e+00	-1.235107e+02	-8.653595e+01	0	0
4414453	2.397000e+00	-1.027732e+02	-2.436337e+01	0	0
4416406	2.397342e+00	-1.009080e+02	2.387791e+00	0	0
