time	gsr	ecg	emg_trapezius	emg_corrugator	emg_zygomaticus
469	2.110000e+00	3.303280e+02	1.810860e+01	0	0
2422	2.110000e+00	3.502029e+02	8.096470e+01	0	0
4375	2.110000e+00	3.633436e+02	3.244645e+01	0	0
6328	2.110000e+00	3.873616e+02	1.974374e+00	0	0
8281	2.110000e+00	4.067860e+02	-1.398316e+01	0	0
10234	2.110000e+00	4.176180e+02	-8.519918e+01	0	0
12188	2.110000e+00	4.141539e+02	-6.820090e+01	0	0
14141	2.110000e+00	4.290206e+02	-3.024776e+01	0	0
16094	2.110000e+00	4.341688e+02	3.686549e+00	0	0
18047	2.110000e+00	4.394717e+02	-2.650685e+00	0	0
20000	2.110000e+00	4.466258e+02	7.589069e+00	0	0
21953	2.110000e+00	4.589906e+02	6.443348e+01	0	0
23906	2.110000e+00	4.833844e+02	6.654908e+01	0	0
25859	2.110000e+00	4.850680e+02	-9.358786e+00	0	0
27813	2.110000e+00	5.053734e+02	6.573007e+00	0	0
29766	2.110000e+00	5.067841e+02	-2.078402e+01	0	0
31719	2.110000e+00	4.909841e+02	-8.111845e+01	0	0
33672	2.110000e+00	4.892320e+02	-2.001012e+01	0	0
35625	2.110000e+00	4.892988e+02	-5.406380e-01	0	0
37578	2.110000e+00	4.770329e+02	-1.879947e+00	0	0
39531	2.110000e+00	4.609794e+02	-1.411840e+00	0	0
41484	2.110000e+00	4.385997e+02	3.567543e+01	0	0
43438	2.110000e+00	4.333584e+02	6.611799e+01	0	0
45391	2.110000e+00	4.118089e+02	-1.006234e+01	0	0
47344	2.110000e+00	3.867708e+02	6.656241e+00	0	0
49297	2.110000e+00	3.561874e+02	-1.773673e+01	0	0
51250	2.110000e+00	3.316158e+02	-7.666459e+01	0	0
53203	2.110000e+00	3.102150e+02	-2.660581e+01	0	0
55156	2.110000e+00	2.698451e+02	-4.695748e+00	0	0
57109	2.110000e+00	2.469315e+02	1.517925e+00	0	0
59063	2.110000e+00	2.224736e+02	-4.609335e+00	0	0
61016	2.110000e+00	1.829785e+02	1.796958e+01	0	0
62969	2.110000e+00	1.617257e+02	7.331350e+01	0	0
64922	2.110000e+00	1.419549e+02	9.463837e+00	0	0
66875	2.110000e+00	1.218013e+02	3.852224e+00	0	0
68828	2.110000e+00	9.287432e+01	-1.622192e+01	0	0
70781	2.110000e+00	7.654954e+01	-8.036425e+01	0	0
72734	2.110000e+00	5.179559e+01	-4.717026e+01	0	0
74688	2.110000e+00	2.492565e+01	-1.813426e+01	0	0
76641	2.110000e+00	3.381710e+00	2.942108e+00	0	0
78594	2.110000e+00	-7.751736e+00	-4.543853e+00	0	0
80547	2.110000e+00	-2.091684e+01	1.630586e+01	0	0
82500	2.110000e+00	-2.820513e+01	8.217275e+01	0	0
84453	2.109759e+00	-3.059981e+01	3.726342e+01	0	0
86406	2.109241e+00	-3.649808e+01	1.046734e-01	0	0
88359	2.110000e+00	-4.459270e+01	-1.536370e+01	0	0
90313	2.109758e+00	-6.369091e+01	-8.537071e+01	0	0
92266	2.109000e+00	-6.959135e+01	-5.895202e+01	0	0
94219	2.109242e+00	-8.410341e+01	-2.438965e+01	0	0
96172	2.109758e+00	-9.130347e+01	3.232772e+00	0	0
98125	2.109000e+00	-1.040129e+02	-3.574789e+00	0	0
100078	2.109000e+00	-9.446435e+01	1.139655e+01	0	0
102031	2.109000e+00	-8.302814e+01	7.950216e+01	0	0
103984	2.109000e+00	-8.236561e+01	6.747354e+01	0	0
105938	2.109000e+00	-8.936442e+01	-9.676431e+00	0	0
107891	2.109000e+00	-8.904641e+01	6.958146e+00	0	0
109844	2.109000e+00	-8.555738e+01	-2.086450e+01	0	0
111797	2.109000e+00	-8.736720e+01	-8.503134e+01	0	0
113750	2.109000e+00	-1.070493e+02	-2.026784e+01	0	0
115703	2.109000e+00	-1.078729e+02	8.603839e-01	0	0
117656	2.109000e+00	-1.147297e+02	2.635212e-01	0	0
119609	2.109000e+00	-1.221117e+02	-3.519755e+00	0	0
121563	2.109000e+00	-1.155443e+02	2.899244e+01	0	0
123516	2.109000e+00	-1.075706e+02	7.388374e+01	0	0
125469	2.109000e+00	-9.497763e+01	-1.156017e+01	0	0
127422	2.109000e+00	-9.807834e+01	7.096582e+00	0	0
129375	2.109000e+00	-9.794631e+01	-1.992000e+01	0	0
131328	2.109000e+00	-1.075690e+02	-8.223967e+01	0	0
133281	2.109000e+00	-1.067681e+02	-2.246882e+01	0	0
135234	2.109000e+00	-9.733084e+01	1.095631e+00	0	0
137188	2.109000e+00	-1.096042e+02	4.866785e-01	0	0
139141	2.109000e+00	-1.061363e+02	-4.873550e+00	0	0
141094	2.109000e+00	-1.128232e+02	1.832997e+01	0	0
143047	2.109000e+00	-1.116473e+02	7.229543e+01	0	0
145000	2.109000e+00	-1.100459e+02	4.864034e+00	0	0
146953	2.109000e+00	-1.041152e+02	4.169688e+00	0	0
148906	2.109000e+00	-9.761435e+01	-1.648752e+01	0	0
150859	2.109000e+00	-1.012346e+02	-7.746262e+01	0	0
152813	2.109000e+00	-1.053535e+02	-3.596580e+01	0	0
154766	2.109000e+00	-1.188664e+02	-4.718495e+00	0	0
156719	2.109000e+00	-1.164671e+02	1.026799e+00	0	0
158672	2.109000e+00	-1.316743e+02	-4.150268e+00	0	0
160625	2.109000e+00	-1.389032e+02	1.568942e+01	0	0
162578	2.109000e+00	-1.393177e+02	7.481027e+01	0	0
164531	2.109000e+00	-1.324807e+02	2.788126e+01	0	0
166484	2.109000e+00	-1.147242e+02	9.515647e-01	0	0
168438	2.109000e+00	-9.970174e+01	-1.490148e+01	0	0
170391	2.109000e+00	-1.026211e+02	-7.751218e+01	0	0
172344	2.109000e+00	-1.132131e+02	-5.419466e+01	0	0
174297	2.109000e+00	-1.097711e+02	-2.877127e+01	0	0
176250	2.109000e+00	-1.191041e+02	4.267013e+00	0	0
178203	2.109000e+00	-1.273994e+02	-4.651802e+00	0	0
180156	2.109000e+00	-1.229722e+02	1.546007e+01	0	0
182109	2.109000e+00	-1.217558e+02	8.890162e+01	0	0
184063	2.108755e+00	-1.131400e+02	5.905469e+01	0	0
186016	2.108000e+00	-1.155375e+02	-7.531725e+00	0	0
187969	2.108245e+00	-1.150690e+02	4.187952e+00	0	0
189922	2.109000e+00	-1.157804e+02	-2.634350e+01	0	0
191875	2.108755e+00	-1.185661e+02	-8.553154e+01	0	0
193828	2.108000e+00	-1.191021e+02	-3.552018e+01	0	0
195781	2.108245e+00	-1.227156e+02	3.592183e+00	0	0
197734	2.108755e+00	-1.280797e+02	-8.853068e-01	0	0
199688	2.108000e+00	-1.269606e+02	2.649178e-01	0	0
201641	2.108000e+00	-1.274212e+02	4.129237e+01	0	0
203594	2.108000e+00	-1.201139e+02	7.329575e+01	0	0
205547	2.108000e+00	-1.032904e+02	-1.109722e+01	0	0
207500	2.108000e+00	-1.042984e+02	7.781488e+00	0	0
209453	2.108000e+00	-1.157104e+02	-2.126991e+01	0	0
211406	2.108000e+00	-1.305677e+02	-8.085237e+01	0	0
213359	2.108000e+00	-1.311199e+02	-1.095954e+01	0	0
215313	2.108000e+00	-1.192002e+02	-1.709802e-01	0	0
217266	2.108000e+00	-1.183946e+02	1.298330e+00	0	0
219219	2.108000e+00	-1.181584e+02	-5.022318e+00	0	0
221172	2.108000e+00	-1.074920e+02	1.996011e+01	0	0
223125	2.108000e+00	-1.047856e+02	7.323822e+01	0	0
225078	2.108000e+00	-1.227564e+02	-4.198157e-01	0	0
227031	2.108000e+00	-1.232338e+02	5.133537e+00	0	0
228984	2.108000e+00	-9.336555e+01	-1.625171e+01	0	0
230938	2.108000e+00	-8.515710e+01	-8.368840e+01	0	0
232891	2.108000e+00	-1.135541e+02	-5.376971e+01	0	0
234844	2.108000e+00	-1.229352e+02	-9.590206e+00	0	0
236797	2.108000e+00	-1.143349e+02	1.713696e+00	0	0
238750	2.108000e+00	-1.056001e+02	-4.480989e+00	0	0
240703	2.108000e+00	-1.116338e+02	1.731348e+01	0	0
242656	2.108000e+00	-1.093820e+02	7.455790e+01	0	0
244609	2.108000e+00	-1.041681e+02	1.934931e+01	0	0
246563	2.108000e+00	-1.023381e+02	2.154154e+00	0	0
248516	2.108000e+00	-1.068758e+02	-1.482200e+01	0	0
250469	2.108000e+00	-1.098501e+02	-8.126732e+01	0	0
252422	2.108000e+00	-1.073349e+02	-5.322153e+01	0	0
254375	2.108000e+00	-1.128133e+02	-8.307416e+00	0	0
256328	2.108000e+00	-1.224805e+02	1.336604e+00	0	0
258281	2.108000e+00	-1.345314e+02	-3.674641e+00	0	0
260234	2.108000e+00	-1.317290e+02	1.264991e+01	0	0
262188	2.108000e+00	-1.302487e+02	7.974516e+01	0	0
264141	2.108000e+00	-1.193383e+02	5.385437e+01	0	0
266094	2.108000e+00	-1.097057e+02	-7.337051e+00	0	0
268047	2.108000e+00	-1.004319e+02	1.406749e+00	0	0
270000	2.108000e+00	-1.056061e+02	-3.066580e+01	0	0
271953	2.108000e+00	-1.144459e+02	-8.011216e+01	0	0
273906	2.108000e+00	-1.229784e+02	-4.581980e+01	0	0
275859	2.108000e+00	-1.262792e+02	5.467025e+00	0	0
277813	2.108000e+00	-1.281506e+02	1.329301e+00	0	0
279766	2.108000e+00	-1.208216e+02	1.450505e+00	0	0
281719	2.108000e+00	-1.178729e+02	3.521159e+01	0	0
283672	2.108000e+00	-1.089381e+02	6.927032e+01	0	0
285625	2.108000e+00	-1.123794e+02	-1.065400e+01	0	0
287578	2.108000e+00	-1.148219e+02	7.480395e+00	0	0
289531	2.108000e+00	-1.096554e+02	-2.049049e+01	0	0
291484	2.107752e+00	-1.086212e+02	-7.746310e+01	0	0
293438	2.107248e+00	-1.144769e+02	-1.186315e+01	0	0
295391	2.108000e+00	-1.310082e+02	-1.623147e+00	0	0
297344	2.108000e+00	-1.222118e+02	-8.315637e-01	0	0
299297	2.108000e+00	-1.268245e+02	-6.129187e+00	0	0
301250	2.107752e+00	-1.348218e+02	1.900349e+01	0	0
303203	2.107000e+00	-1.340326e+02	7.222512e+01	0	0
305156	2.107000e+00	-1.249383e+02	5.104651e+00	0	0
307109	2.107000e+00	-1.108833e+02	4.338125e+00	0	0
309063	2.107000e+00	-1.104522e+02	-1.614662e+01	0	0
311016	2.107000e+00	-1.159135e+02	-7.878001e+01	0	0
312969	2.107000e+00	-1.183206e+02	-3.967743e+01	0	0
314922	2.107000e+00	-1.186342e+02	-2.342856e-01	0	0
316875	2.107000e+00	-1.230804e+02	5.625143e-01	0	0
318828	2.107000e+00	-1.151520e+02	-4.003569e+00	0	0
320781	2.107000e+00	-1.226733e+02	1.654873e+01	0	0
322734	2.107000e+00	-1.126773e+02	7.296492e+01	0	0
324688	2.107000e+00	-1.096744e+02	2.197868e+01	0	0
326641	2.107000e+00	-1.095311e+02	1.866923e+00	0	0
328594	2.107000e+00	-1.119732e+02	-1.527820e+01	0	0
330547	2.107000e+00	-1.227483e+02	-7.610334e+01	0	0
332500	2.107000e+00	-1.168997e+02	-4.986138e+01	0	0
334453	2.107000e+00	-1.213053e+02	-2.392300e+01	0	0
336406	2.107000e+00	-1.165182e+02	3.727960e+00	0	0
338359	2.107000e+00	-1.359617e+02	-4.559372e+00	0	0
340313	2.107000e+00	-1.392802e+02	1.568256e+01	0	0
342266	2.107000e+00	-1.288122e+02	8.144296e+01	0	0
344219	2.107000e+00	-1.218729e+02	4.650741e+01	0	0
346172	2.107000e+00	-1.203075e+02	-2.964100e+00	0	0
348125	2.107000e+00	-1.133204e+02	1.331647e+00	0	0
350078	2.107000e+00	-1.127315e+02	-3.562496e+01	0	0
352031	2.107000e+00	-1.241539e+02	-7.952674e+01	0	0
353984	2.107000e+00	-1.333249e+02	-4.137668e+01	0	0
355938	2.107000e+00	-1.392321e+02	4.869812e+00	0	0
357891	2.107000e+00	-1.494547e+02	3.168248e-01	0	0
359844	2.107000e+00	-1.432011e+02	3.809375e+00	0	0
361797	2.107000e+00	-1.335186e+02	4.527215e+01	0	0
363750	2.107000e+00	-1.287799e+02	7.204798e+01	0	0
365703	2.107000e+00	-1.261493e+02	-1.098227e+01	0	0
367656	2.107000e+00	-1.230670e+02	7.720808e+00	0	0
369609	2.107000e+00	-1.327361e+02	-2.303795e+01	0	0
371563	2.107000e+00	-1.379785e+02	-7.636155e+01	0	0
373516	2.107000e+00	-1.372137e+02	-4.115042e+00	0	0
375469	2.107000e+00	-1.378176e+02	-9.428373e+00	0	0
377422	2.107000e+00	-1.352424e+02	-7.985181e+00	0	0
379375	2.107000e+00	-1.451298e+02	-8.268217e+00	0	0
381328	2.107000e+00	-1.374808e+02	2.620066e+01	0	0
383281	2.107000e+00	-1.306423e+02	6.619539e+01	0	0
385234	2.106749e+00	-1.273332e+02	7.047989e+00	0	0
387188	2.106251e+00	-1.227387e+02	1.939432e+00	0	0
389141	2.107000e+00	-1.214721e+02	-1.565970e+01	0	0
391094	2.107000e+00	-1.217877e+02	-7.428285e+01	0	0
393047	2.107000e+00	-1.279424e+02	-4.568894e+01	0	0
395000	2.107000e+00	-1.396841e+02	-1.098591e+01	0	0
396953	2.107000e+00	-1.388057e+02	6.670109e+00	0	0
398906	2.106749e+00	-1.440230e+02	-2.248790e+00	0	0
400859	2.106251e+00	-1.493040e+02	1.925898e+01	0	0
402813	2.107000e+00	-1.452346e+02	7.098842e+01	0	0
404766	2.106748e+00	-1.438942e+02	9.606943e+00	0	0
406719	2.106252e+00	-1.342782e+02	3.956746e+00	0	0
408672	2.106748e+00	-1.191152e+02	-1.530404e+01	0	0
410625	2.106000e+00	-1.299665e+02	-7.997270e+01	0	0
412578	2.106000e+00	-1.370528e+02	-4.693929e+01	0	0
414531	2.106000e+00	-1.336266e+02	-7.956130e+00	0	0
416484	2.106000e+00	-1.501276e+02	5.505067e+00	0	0
418438	2.106000e+00	-1.400862e+02	-1.336149e+00	0	0
420391	2.106000e+00	-1.334056e+02	1.973518e+01	0	0
422344	2.106000e+00	-1.143298e+02	9.043016e+01	0	0
424297	2.106000e+00	-9.783132e+01	5.201659e+01	0	0
426250	2.106000e+00	-8.473507e+01	2.670818e-02	0	0
428203	2.106000e+00	-6.061475e+01	-2.901834e+00	0	0
430156	2.106000e+00	-4.738590e+01	-5.582073e+01	0	0
432109	2.106000e+00	-1.010488e+01	-8.200126e+01	0	0
434063	2.106000e+00	-1.068787e+01	-4.244127e+01	0	0
436016	2.106000e+00	-1.244573e+00	5.785195e+00	0	0
437969	2.106000e+00	-7.736291e-02	1.092131e+00	0	0
439922	2.106000e+00	1.401096e-01	-2.226763e-01	0	0
441875	2.106000e+00	2.559349e+00	3.737610e+01	0	0
443828	2.106000e+00	2.278181e+01	7.609880e+01	0	0
445781	2.106000e+00	2.265053e+01	-1.189617e+01	0	0
447734	2.106000e+00	1.979900e+01	8.315316e+00	0	0
449688	2.106000e+00	3.963399e+01	-2.284641e+01	0	0
451641	2.106000e+00	4.419379e+01	-8.591136e+01	0	0
453594	2.106000e+00	5.112729e+01	-1.734038e+01	0	0
455547	2.106000e+00	3.967350e+01	-4.184174e+00	0	0
457500	2.106000e+00	4.659038e+01	-2.789811e+00	0	0
459453	2.106000e+00	5.069614e+01	-7.787353e+00	0	0
461406	2.106000e+00	6.257597e+01	2.046158e+01	0	0
463359	2.106000e+00	6.596241e+01	7.038333e+01	0	0
465313	2.106000e+00	9.705875e+01	-9.408637e+00	0	0
467266	2.106000e+00	1.189940e+02	3.513256e+00	0	0
469219	2.106000e+00	1.227778e+02	-2.130511e+01	0	0
471172	2.106000e+00	1.086585e+02	-8.015099e+01	0	0
473125	2.106000e+00	9.560128e+01	-3.073888e+01	0	0
475078	2.106000e+00	8.468610e+01	-6.536568e+00	0	0
477031	2.106000e+00	6.783046e+01	1.943574e+00	0	0
478984	2.106000e+00	7.347420e+01	-4.267308e+00	0	0
480938	2.106000e+00	7.149539e+01	1.902143e+01	0	0
482891	2.106000e+00	7.580268e+01	7.451457e+01	0	0
484844	2.106000e+00	7.627272e+01	1.563235e+01	0	0
486797	2.106000e+00	9.330533e+01	3.134269e+00	0	0
488750	2.106000e+00	7.624974e+01	-1.703572e+01	0	0
490703	2.106000e+00	3.253278e+01	-7.626246e+01	0	0
492656	2.106000e+00	1.517582e+01	-3.378100e+01	0	0
494609	2.106000e+00	-7.630318e+00	-8.257078e+00	0	0
496563	2.106000e+00	-3.068119e+01	1.306689e+00	0	0
498516	2.106000e+00	-4.205797e+01	-6.984635e+00	0	0
500469	2.106000e+00	-5.573439e+01	1.180512e+01	0	0
502422	2.106000e+00	-6.631317e+01	7.851541e+01	0	0
504375	2.106000e+00	-7.323628e+01	4.443374e+01	0	0
506328	2.106000e+00	-9.685641e+01	-3.032708e+00	0	0
508281	2.105745e+00	-1.020582e+02	-2.364176e+00	0	0
510234	2.105255e+00	-1.128611e+02	-4.974688e+01	0	0
512188	2.106000e+00	-1.279067e+02	-7.662531e+01	0	0
514141	2.106000e+00	-1.317997e+02	-3.378020e+01	0	0
516094	2.106000e+00	-1.396686e+02	1.110525e+01	0	0
518047	2.105745e+00	-1.449746e+02	5.523689e+00	0	0
520000	2.105000e+00	-1.575811e+02	1.086466e+01	0	0
521953	2.105000e+00	-1.564410e+02	5.841777e+01	0	0
523906	2.105000e+00	-1.564001e+02	7.190565e+01	0	0
525859	2.105000e+00	-1.493406e+02	-1.108619e+01	0	0
527813	2.105000e+00	-1.401109e+02	8.392248e+00	0	0
529766	2.105000e+00	-1.513905e+02	-2.542046e+01	0	0
531719	2.105000e+00	-1.621372e+02	-8.646402e+01	0	0
533672	2.105000e+00	-1.735712e+02	-1.130465e+01	0	0
535625	2.105000e+00	-1.811260e+02	-1.257532e+01	0	0
537578	2.105000e+00	-1.794003e+02	-9.319114e+00	0	0
539531	2.105000e+00	-1.834579e+02	-8.965616e+00	0	0
541484	2.105000e+00	-1.846380e+02	2.955193e+01	0	0
543438	2.105000e+00	-1.896806e+02	6.983967e+01	0	0
545391	2.105000e+00	-1.774874e+02	-3.309346e+00	0	0
547344	2.105000e+00	-1.774173e+02	6.110517e+00	0	0
549297	2.105000e+00	-1.836868e+02	-1.301398e+01	0	0
551250	2.105000e+00	-1.822801e+02	-7.668998e+01	0	0
553203	2.105000e+00	-1.834006e+02	-3.856455e+01	0	0
555156	2.105000e+00	-1.870308e+02	3.294409e+00	0	0
557109	2.105000e+00	-1.899452e+02	1.000802e+01	0	0
559063	2.105000e+00	-1.884656e+02	2.498782e+00	0	0
561016	2.105000e+00	-2.001297e+02	2.540201e+01	0	0
562969	2.105000e+00	-1.944987e+02	7.880786e+01	0	0
564922	2.105000e+00	-1.809790e+02	1.215552e+01	0	0
566875	2.105000e+00	-1.856071e+02	3.820450e+00	0	0
568828	2.105000e+00	-1.832542e+02	-1.783094e+01	0	0
570781	2.105000e+00	-1.900166e+02	-8.152888e+01	0	0
572734	2.105000e+00	-1.751592e+02	-4.523056e+01	0	0
574688	2.105000e+00	-1.667880e+02	-1.794902e+01	0	0
576641	2.105000e+00	-1.761140e+02	-2.891352e+00	0	0
578594	2.105000e+00	-1.823297e+02	-1.012654e+01	0	0
580547	2.105000e+00	-1.839429e+02	1.223971e+01	0	0
582500	2.105000e+00	-1.945939e+02	7.971253e+01	0	0
584453	2.105000e+00	-2.322419e+02	4.151397e+01	0	0
586406	2.105000e+00	-2.503024e+02	1.164688e+00	0	0
588359	2.105000e+00	-2.532524e+02	-1.021030e+01	0	0
590313	2.105000e+00	-2.230346e+02	-6.999650e+01	0	0
592266	2.105000e+00	-1.830960e+02	-7.222329e+01	0	0
594219	2.105000e+00	-1.131977e+02	-4.249242e+01	0	0
596172	2.105000e+00	-5.375076e+01	1.502680e+01	0	0
598125	2.105000e+00	3.660833e+01	5.291538e+00	0	0
600078	2.105000e+00	1.312927e+02	1.110017e+01	0	0
602031	2.105000e+00	3.083760e+02	5.753533e+01	0	0
603984	2.105000e+00	5.744295e+02	6.722656e+01	0	0
605938	2.105000e+00	8.454773e+02	-1.037128e+01	0	0
607891	2.105000e+00	1.082598e+03	7.777741e+00	0	0
609844	2.105000e+00	1.349848e+03	-2.344323e+01	0	0
611797	2.105000e+00	1.613869e+03	-8.383157e+01	0	0
613750	2.105000e+00	1.805027e+03	-1.796434e+01	0	0
615703	2.105000e+00	1.842355e+03	-8.878725e+00	0	0
617656	2.105000e+00	1.737137e+03	-8.148286e+00	0	0
619609	2.105000e+00	1.495496e+03	-8.524305e+00	0	0
621563	2.104742e+00	1.153171e+03	2.869778e+01	0	0
623516	2.104258e+00	9.196493e+02	6.283234e+01	0	0
625469	2.104742e+00	7.175435e+02	-1.376939e+01	0	0
627422	2.104000e+00	5.560411e+02	3.908660e+00	0	0
629375	2.104000e+00	2.514878e+02	-2.082507e+01	0	0
631328	2.104000e+00	-1.100670e+02	-7.655975e+01	0	0
633281	2.104000e+00	-2.891112e+02	-2.681610e+01	0	0
635234	2.104000e+00	-3.306422e+02	1.325404e+00	0	0
637188	2.104259e+00	-3.244958e+02	5.172189e+00	0	0
639141	2.104741e+00	-2.838492e+02	-2.043946e+00	0	0
641094	2.104000e+00	-2.460671e+02	2.186461e+01	0	0
643047	2.104000e+00	-1.943140e+02	7.009858e+01	0	0
645000	2.104000e+00	-1.649152e+02	5.781496e-02	0	0
646953	2.104000e+00	-1.325090e+02	5.365105e+00	0	0
648906	2.104000e+00	-1.075090e+02	-1.784832e+01	0	0
650859	2.104000e+00	-1.075821e+02	-8.106515e+01	0	0
652813	2.104000e+00	-9.661171e+01	-4.681497e+01	0	0
654766	2.104000e+00	-1.129289e+02	-1.251028e+01	0	0
656719	2.104000e+00	-1.218550e+02	4.601764e+00	0	0
658672	2.104000e+00	-1.337101e+02	-3.066879e+00	0	0
660625	2.104000e+00	-1.403316e+02	1.943453e+01	0	0
662578	2.104000e+00	-1.300610e+02	8.444222e+01	0	0
664531	2.104000e+00	-1.335079e+02	4.004942e+01	0	0
666484	2.104000e+00	-1.288131e+02	1.023852e+00	0	0
668438	2.104000e+00	-1.300164e+02	-9.922709e+00	0	0
670391	2.104000e+00	-1.342463e+02	-7.133990e+01	0	0
672344	2.104000e+00	-1.315995e+02	-7.473074e+01	0	0
674297	2.104000e+00	-1.297586e+02	-3.546039e+01	0	0
676250	2.104000e+00	-1.327786e+02	7.032564e+00	0	0
678203	2.104000e+00	-1.312738e+02	-3.218325e-01	0	0
680156	2.104000e+00	-1.281179e+02	6.118483e+00	0	0
682109	2.104000e+00	-1.306223e+02	5.706057e+01	0	0
684063	2.104000e+00	-1.038575e+02	6.789748e+01	0	0
686016	2.104000e+00	-9.896141e+01	-1.051724e+01	0	0
687969	2.104000e+00	-1.090476e+02	7.629922e+00	0	0
689922	2.104000e+00	-1.103495e+02	-2.330571e+01	0	0
691875	2.104000e+00	-1.100715e+02	-8.579762e+01	0	0
693828	2.104000e+00	-1.029954e+02	-2.311808e+01	0	0
695781	2.104000e+00	-1.056264e+02	-3.715984e+00	0	0
697734	2.104000e+00	-1.156272e+02	-3.614746e+00	0	0
699688	2.104000e+00	-1.058254e+02	-1.844598e+00	0	0
701641	2.104000e+00	-9.991615e+01	3.748384e+01	0	0
703594	2.104000e+00	-1.047382e+02	6.664542e+01	0	0
705547	2.104000e+00	-8.566346e+01	-1.101100e+01	0	0
707500	2.104000e+00	-6.350343e+01	7.181879e+00	0	0
709453	2.104000e+00	-8.415560e+01	-1.931650e+01	0	0
711406	2.104000e+00	-8.609391e+01	-8.068481e+01	0	0
713359	2.104000e+00	-9.191814e+01	-3.751140e+01	0	0
715313	2.104000e+00	-8.225027e+01	-7.477389e+00	0	0
717266	2.104000e+00	-8.572733e+01	3.122094e+00	0	0
719219	2.104000e+00	-9.050206e+01	-5.518588e+00	0	0
721172	2.104000e+00	-8.392457e+01	2.154548e+01	0	0
723125	2.104000e+00	-6.845233e+01	7.327810e+01	0	0
725078	2.104000e+00	-5.358967e+01	2.599599e-01	0	0
727031	2.104000e+00	-5.940535e+01	5.842090e+00	0	0
728984	2.104000e+00	-5.025685e+01	-1.938551e+01	0	0
730938	2.104000e+00	-4.006668e+01	-8.028913e+01	0	0
732891	2.104000e+00	-5.671568e+01	-3.512490e+01	0	0
734844	2.104000e+00	-5.076435e+01	-1.105657e+01	0	0
736797	2.104000e+00	-5.687941e+01	3.722273e+00	0	0
738750	2.104000e+00	-7.405698e+01	-4.016434e+00	0	0
740703	2.104000e+00	-6.348323e+01	1.957890e+01	0	0
742656	2.103738e+00	-4.773260e+01	7.991089e+01	0	0
744609	2.103000e+00	-2.585358e+01	2.665099e+01	0	0
746563	2.103000e+00	-3.433326e+01	2.008274e+00	0	0
748516	2.103000e+00	-2.133756e+01	-1.627117e+01	0	0
750469	2.103000e+00	-1.332279e+01	-8.532228e+01	0	0
752422	2.103000e+00	-2.292534e+01	-6.522119e+01	0	0
754375	2.103000e+00	-1.874252e+01	-2.699946e+01	0	0
756328	2.103000e+00	-1.736835e+01	4.284191e+00	0	0
758281	2.103000e+00	-7.467536e+00	-2.171913e+00	0	0
760234	2.103000e+00	-4.439904e+00	9.173727e+00	0	0
762188	2.103000e+00	-4.876513e+00	6.680432e+01	0	0
764141	2.103000e+00	-8.482609e-01	6.579575e+01	0	0
766094	2.103000e+00	-2.614866e+00	-9.207383e+00	0	0
768047	2.103000e+00	9.681474e+00	8.137139e+00	0	0
770000	2.103000e+00	1.676865e+01	-2.039829e+01	0	0
771953	2.103000e+00	2.859381e+01	-8.300303e+01	0	0
773906	2.103000e+00	2.036980e+01	-2.619172e+01	0	0
775859	2.103000e+00	3.184644e+01	2.265301e+00	0	0
777813	2.103000e+00	3.474494e+01	-5.629810e-01	0	0
779766	2.103000e+00	2.936356e+01	-1.239943e+00	0	0
781719	2.103000e+00	3.036596e+01	3.603105e+01	0	0
783672	2.103000e+00	4.085574e+01	6.702758e+01	0	0
785625	2.103000e+00	6.033594e+01	-1.071480e+01	0	0
787578	2.103000e+00	7.798805e+01	7.392356e+00	0	0
789531	2.103000e+00	7.649420e+01	-1.908458e+01	0	0
791484	2.103000e+00	8.098025e+01	-7.728026e+01	0	0
793438	2.103000e+00	8.493715e+01	-2.930621e+01	0	0
795391	2.103000e+00	8.399578e+01	-3.446026e+00	0	0
797344	2.103000e+00	8.413877e+01	2.250493e+00	0	0
799297	2.103000e+00	9.363953e+01	-4.065830e+00	0	0
801250	2.103000e+00	1.009630e+02	1.983859e+01	0	0
803203	2.103000e+00	1.045170e+02	7.117202e+01	0	0
805156	2.103000e+00	1.312223e+02	1.108655e+01	0	0
807109	2.103000e+00	1.417746e+02	4.263540e+00	0	0
809063	2.103000e+00	1.572840e+02	-1.603649e+01	0	0
811016	2.103000e+00	1.484983e+02	-7.743438e+01	0	0
812969	2.103000e+00	1.545063e+02	-4.751644e+01	0	0
814922	2.103000e+00	1.677547e+02	-1.284688e+01	0	0
816875	2.103000e+00	1.704362e+02	2.968524e+00	0	0
818828	2.103000e+00	1.658703e+02	-4.076670e+00	0	0
820781	2.103000e+00	1.985615e+02	1.896008e+01	0	0
822734	2.103000e+00	2.186625e+02	7.573779e+01	0	0
824688	2.103000e+00	2.473567e+02	2.586924e+01	0	0
826641	2.103000e+00	2.659735e+02	3.271137e+00	0	0
828594	2.103000e+00	2.605649e+02	-1.522601e+01	0	0
830547	2.103000e+00	2.662592e+02	-8.130543e+01	0	0
832500	2.103000e+00	2.581639e+02	-6.574741e+01	0	0
834453	2.103000e+00	2.777850e+02	-3.523928e+01	0	0
836406	2.103000e+00	2.949886e+02	5.255949e+00	0	0
838359	2.103000e+00	3.172556e+02	-2.933531e+00	0	0
840313	2.103000e+00	3.265516e+02	7.568528e+00	0	0
842266	2.103000e+00	3.328972e+02	6.494518e+01	0	0
844219	2.103000e+00	3.464599e+02	6.904222e+01	0	0
846172	2.103000e+00	3.686642e+02	-1.068764e+01	0	0
848125	2.103000e+00	3.859166e+02	7.785833e+00	0	0
850078	2.103000e+00	3.853892e+02	-2.358355e+01	0	0
852031	2.103000e+00	3.864916e+02	-8.879019e+01	0	0
853984	2.103000e+00	3.938503e+02	-2.671084e+01	0	0
855938	2.103000e+00	4.092404e+02	2.310450e+00	0	0
857891	2.103000e+00	4.323868e+02	1.718420e-01	0	0
859844	2.103000e+00	4.445897e+02	-2.782972e+00	0	0
861797	2.102735e+00	4.514828e+02	3.501235e+01	0	0
863750	2.102265e+00	4.556827e+02	7.447764e+01	0	0
865703	2.102735e+00	4.751765e+02	-1.243535e+01	0	0
867656	2.102000e+00	4.915009e+02	7.694377e+00	0	0
869609	2.102000e+00	4.875403e+02	-2.303065e+01	0	0
871563	2.102000e+00	4.905272e+02	-8.521566e+01	0	0
873516	2.102000e+00	4.924409e+02	-2.367938e+01	0	0
875469	2.102266e+00	4.968136e+02	1.181151e+00	0	0
877422	2.102734e+00	4.891013e+02	4.696161e-01	0	0
879375	2.102000e+00	4.803247e+02	-5.128530e+00	0	0
881328	2.102000e+00	4.713967e+02	2.066586e+01	0	0
883281	2.102000e+00	4.535307e+02	7.693380e+01	0	0
885234	2.102000e+00	4.313038e+02	1.345217e+01	0	0
887188	2.102000e+00	4.119933e+02	3.533581e+00	0	0
889141	2.102000e+00	3.974274e+02	-1.780167e+01	0	0
891094	2.102000e+00	3.745602e+02	-8.297193e+01	0	0
893047	2.102000e+00	3.383536e+02	-4.688783e+01	0	0
895000	2.102000e+00	3.019293e+02	-7.383546e+00	0	0
896953	2.102000e+00	2.831287e+02	1.653943e+00	0	0
898906	2.102000e+00	2.518800e+02	-4.757887e+00	0	0
900859	2.102000e+00	2.157918e+02	1.879588e+01	0	0
902813	2.102000e+00	1.932700e+02	7.724605e+01	0	0
904766	2.102000e+00	1.736113e+02	2.458533e+01	0	0
906719	2.102000e+00	1.492773e+02	2.379185e+00	0	0
908672	2.102000e+00	1.366310e+02	-1.734016e+01	0	0
910625	2.102000e+00	1.108338e+02	-8.035691e+01	0	0
912578	2.102000e+00	7.053840e+01	-5.381669e+01	0	0
914531	2.102000e+00	5.495047e+01	-2.937288e+01	0	0
916484	2.102000e+00	3.165981e+01	5.034725e+00	0	0
918438	2.102000e+00	3.639002e+00	-3.698256e+00	0	0
920391	2.102000e+00	-1.895079e+01	1.366911e+01	0	0
922344	2.102000e+00	-2.118520e+01	8.127349e+01	0	0
924297	2.102000e+00	-2.646320e+01	6.452239e+01	0	0
926250	2.102000e+00	-3.017958e+01	-8.767783e+00	0	0
928203	2.102000e+00	-4.573583e+01	4.638373e+00	0	0
930156	2.102000e+00	-5.933674e+01	-3.112319e+01	0	0
932109	2.102000e+00	-6.986050e+01	-8.794394e+01	0	0
934063	2.102000e+00	-8.403123e+01	-3.309301e+01	0	0
936016	2.102000e+00	-9.442729e+01	3.266310e+00	0	0
937969	2.102000e+00	-1.019999e+02	1.984809e-01	0	0
939922	2.102000e+00	-1.003592e+02	-3.917794e+00	0	0
941875	2.102000e+00	-1.039356e+02	3.168996e+01	0	0
943828	2.102000e+00	-9.792851e+01	7.489055e+01	0	0
945781	2.102000e+00	-9.568999e+01	-1.225487e+01	0	0
947734	2.102000e+00	-9.870210e+01	8.350651e+00	0	0
949688	2.102000e+00	-1.037584e+02	-2.284459e+01	0	0
951641	2.102000e+00	-1.076847e+02	-8.625186e+01	0	0
953594	2.102000e+00	-1.066133e+02	-2.502471e+01	0	0
955547	2.102000e+00	-1.135406e+02	1.982650e+00	0	0
957500	2.102000e+00	-1.273596e+02	8.028329e-01	0	0
959453	2.102000e+00	-1.209242e+02	-5.193845e+00	0	0
961406	2.102000e+00	-1.201583e+02	2.150521e+01	0	0
963359	2.102000e+00	-1.274842e+02	7.566810e+01	0	0
965313	2.102000e+00	-1.182581e+02	7.942564e+00	0	0
967266	2.102000e+00	-1.110134e+02	4.438552e+00	0	0
969219	2.102000e+00	-1.044717e+02	-1.849874e+01	0	0
971172	2.102000e+00	-1.052963e+02	-7.984217e+01	0	0
973125	2.102000e+00	-1.117526e+02	-3.926850e+01	0	0
975078	2.102000e+00	-1.171972e+02	-6.603441e+00	0	0
977031	2.102000e+00	-1.176591e+02	1.482268e+00	0	0
978984	2.102000e+00	-1.117442e+02	-4.488911e+00	0	0
980938	2.102000e+00	-1.256203e+02	1.734163e+01	0	0
982891	2.102000e+00	-1.157117e+02	7.803968e+01	0	0
984844	2.101731e+00	-1.144408e+02	3.405665e+01	0	0
986797	2.101000e+00	-1.151777e+02	3.590388e-01	0	0
988750	2.101269e+00	-1.046191e+02	-1.763538e+01	0	0
990703	2.101731e+00	-1.143709e+02	-7.577763e+01	0	0
992656	2.101000e+00	-1.138731e+02	-3.960770e+01	0	0
994609	2.101000e+00	-1.171775e+02	-2.025852e+01	0	0
996563	2.101000e+00	-1.242266e+02	3.355321e+00	0	0
998516	2.101000e+00	-1.258860e+02	-4.866702e+00	0	0
1000469	2.101000e+00	-1.204199e+02	1.635405e+01	0	0
1002422	2.101000e+00	-1.097978e+02	8.895140e+01	0	0
1004375	2.101000e+00	-1.148414e+02	6.009824e+01	0	0
1006328	2.101000e+00	-1.115640e+02	-8.640089e+00	0	0
1008281	2.101000e+00	-1.021099e+02	4.335413e+00	0	0
1010234	2.101000e+00	-1.047066e+02	-3.047013e+01	0	0
1012188	2.101000e+00	-1.179041e+02	-8.403324e+01	0	0
1014141	2.101000e+00	-1.186767e+02	-2.738122e+01	0	0
1016094	2.101000e+00	-1.263388e+02	2.427407e+00	0	0
1018047	2.101000e+00	-1.372531e+02	-7.563296e-01	0	0
1020000	2.101270e+00	-1.265575e+02	-6.734795e-01	0	0
1021953	2.101730e+00	-1.233132e+02	4.100059e+01	0	0
1023906	2.101000e+00	-1.280870e+02	7.078022e+01	0	0
1025859	2.101000e+00	-1.147217e+02	-1.194448e+01	0	0
1027813	2.101000e+00	-1.050417e+02	8.018616e+00	0	0
1029766	2.101000e+00	-1.111084e+02	-2.373217e+01	0	0
1031719	2.101000e+00	-1.151021e+02	-7.817546e+01	0	0
1033672	2.101000e+00	-1.185439e+02	-9.818849e+00	0	0
1035625	2.101000e+00	-1.136966e+02	-3.906478e-01	0	0
1037578	2.101000e+00	-1.217696e+02	2.910181e-01	0	0
1039531	2.101000e+00	-1.300380e+02	-2.698371e+00	0	0
1041484	2.101000e+00	-1.193189e+02	2.976753e+01	0	0
1043438	2.101000e+00	-1.125842e+02	6.571057e+01	0	0
1045391	2.101000e+00	-1.010949e+02	-3.353260e+00	0	0
1047344	2.101000e+00	-1.004566e+02	5.255886e+00	0	0
1049297	2.101000e+00	-1.110276e+02	-1.790765e+01	0	0
1051250	2.101000e+00	-1.092582e+02	-7.918334e+01	0	0
1053203	2.101000e+00	-1.122372e+02	-4.564365e+01	0	0
1055156	2.101000e+00	-1.166903e+02	-5.421980e+00	0	0
1057109	2.101000e+00	-1.135084e+02	1.198598e+00	0	0
1059063	2.101000e+00	-1.103067e+02	-4.254628e+00	0	0
1061016	2.101000e+00	-1.102178e+02	1.807076e+01	0	0
1062969	2.101000e+00	-1.075279e+02	7.500157e+01	0	0
1064922	2.101000e+00	-1.053241e+02	2.747348e+01	0	0
1066875	2.101000e+00	-9.581711e+01	7.427848e-01	0	0
1068828	2.101000e+00	-1.006833e+02	-1.661371e+01	0	0
1070781	2.101000e+00	-1.047500e+02	-7.944710e+01	0	0
1072734	2.101000e+00	-1.186972e+02	-5.489206e+01	0	0
1074688	2.101000e+00	-1.049366e+02	-1.985445e+01	0	0
1076641	2.101000e+00	-1.096383e+02	2.910353e+00	0	0
1078594	2.101000e+00	-1.155429e+02	-4.736008e+00	0	0
1080547	2.101000e+00	-1.076782e+02	1.574991e+01	0	0
1082500	2.101000e+00	-1.024579e+02	8.439700e+01	0	0
1084453	2.101000e+00	-1.008218e+02	5.480944e+01	0	0
1086406	2.101000e+00	-1.037038e+02	-8.919080e+00	0	0
1088359	2.101000e+00	-1.021796e+02	3.659832e-01	0	0
1090313	2.101000e+00	-9.991865e+01	-3.717686e+01	0	0
1092266	2.101000e+00	-1.029654e+02	-8.228709e+01	0	0
1094219	2.101000e+00	-1.034793e+02	-3.544821e+01	0	0
1096172	2.101000e+00	-1.085709e+02	3.480930e+00	0	0
1098125	2.101000e+00	-1.144871e+02	1.508204e-01	0	0
1100078	2.101000e+00	-1.180764e+02	-2.856894e+00	0	0
1102031	2.101000e+00	-1.135128e+02	3.317944e+01	0	0
1103984	2.101000e+00	-1.032923e+02	7.512660e+01	0	0
1105938	2.101000e+00	-9.435139e+01	-1.267190e+01	0	0
1107891	2.101000e+00	-8.039181e+01	8.541928e+00	0	0
1109844	2.101000e+00	-8.902716e+01	-2.414223e+01	0	0
1111797	2.101000e+00	-9.778744e+01	-8.633022e+01	0	0
1113750	2.100727e+00	-1.129332e+02	-2.145259e+01	0	0
1115703	2.100273e+00	-1.101924e+02	1.307192e+00	0	0
1117656	2.101000e+00	-1.280221e+02	-9.567153e-01	0	0
1119609	2.100727e+00	-1.173303e+02	-4.279478e+00	0	0
1121563	2.100273e+00	-1.203675e+02	2.981839e+01	0	0
1123516	2.101000e+00	-1.119779e+02	7.499694e+01	0	0
1125469	2.100727e+00	-1.054948e+02	4.462241e+00	0	0
1127422	2.100273e+00	-1.015572e+02	5.215144e+00	0	0
1129375	2.101000e+00	-9.423254e+01	-1.981140e+01	0	0
1131328	2.100727e+00	-9.432815e+01	-8.065113e+01	0	0
1133281	2.100000e+00	-9.869445e+01	-3.403963e+01	0	0
1135234	2.100000e+00	-9.883748e+01	-3.342777e+00	0	0
1137188	2.100274e+00	-1.010831e+02	1.293892e+00	0	0
1139141	2.100726e+00	-1.123223e+02	-4.753042e+00	0	0
1141094	2.100000e+00	-1.057960e+02	1.924306e+01	0	0
1143047	2.100000e+00	-1.065756e+02	7.617691e+01	0	0
1145000	2.100000e+00	-1.018270e+02	2.337288e+01	0	0
1146953	2.100000e+00	-9.576128e+01	2.061631e+00	0	0
1148906	2.100000e+00	-9.709525e+01	-1.794503e+01	0	0
1150859	2.100000e+00	-1.161331e+02	-7.842150e+01	0	0
1152813	2.100000e+00	-1.227769e+02	-4.494331e+01	0	0
1154766	2.100000e+00	-1.212062e+02	-1.749381e+01	0	0
1156719	2.100000e+00	-1.263439e+02	3.106268e+00	0	0
1158672	2.100000e+00	-1.291635e+02	-4.558602e+00	0	0
1160625	2.100000e+00	-1.210460e+02	1.665268e+01	0	0
1162578	2.100000e+00	-1.229670e+02	8.647362e+01	0	0
1164531	2.100000e+00	-1.298270e+02	5.584369e+01	0	0
1166484	2.100000e+00	-1.145760e+02	-7.291097e+00	0	0
1168438	2.100000e+00	-1.095542e+02	7.638851e-01	0	0
1170391	2.100000e+00	-1.100685e+02	-3.957297e+01	0	0
1172344	2.100000e+00	-1.138974e+02	-7.921458e+01	0	0
1174297	2.100000e+00	-1.126114e+02	-2.799912e+01	0	0
1176250	2.100000e+00	-1.187007e+02	3.213721e+00	0	0
1178203	2.100000e+00	-1.315854e+02	6.356975e-01	0	0
1180156	2.100000e+00	-1.226119e+02	3.820008e+00	0	0
1182109	2.100000e+00	-1.255370e+02	4.955987e+01	0	0
1184063	2.100000e+00	-1.146767e+02	7.359565e+01	0	0
1186016	2.100000e+00	-1.106469e+02	-1.212052e+01	0	0
1187969	2.100000e+00	-9.985351e+01	8.831500e+00	0	0
1189922	2.100000e+00	-1.077087e+02	-2.501722e+01	0	0
1191875	2.100000e+00	-1.090882e+02	-8.252864e+01	0	0
1193828	2.100000e+00	-1.092204e+02	-1.371476e+01	0	0
1195781	2.100000e+00	-1.117242e+02	-5.937249e+00	0	0
1197734	2.100000e+00	-1.262824e+02	-3.343298e+00	0	0
1199688	2.100000e+00	-1.301314e+02	-8.058738e+00	0	0
1201641	2.100000e+00	-1.143179e+02	2.373750e+01	0	0
1203594	2.100000e+00	-1.024961e+02	6.927965e+01	0	0
1205547	2.100000e+00	-9.041944e+01	-8.215356e+00	0	0
1207500	2.100000e+00	-1.025926e+02	8.079318e+00	0	0
1209453	2.100000e+00	-1.043880e+02	-1.488998e+01	0	0
1211406	2.100000e+00	-1.054413e+02	-7.709291e+01	0	0
1213359	2.100000e+00	-1.086912e+02	-4.194793e+01	0	0
1215313	2.100000e+00	-1.128306e+02	-5.678099e+00	0	0
1217266	2.100000e+00	-1.285422e+02	4.023142e+00	0	0
1219219	2.100000e+00	-1.300858e+02	-5.425595e+00	0	0
1221172	2.100000e+00	-1.226500e+02	2.102691e+01	0	0
1223125	2.100000e+00	-1.122970e+02	7.619056e+01	0	0
1225078	2.100000e+00	-9.907462e+01	1.583258e+01	0	0
1227031	2.100000e+00	-9.120826e+01	4.040579e+00	0	0
1228984	2.100000e+00	-9.500988e+01	-1.861663e+01	0	0
1230938	2.100000e+00	-1.058233e+02	-8.385525e+01	0	0
1232891	2.100000e+00	-1.085153e+02	-4.837714e+01	0	0
1234844	2.100000e+00	-1.165175e+02	-1.796079e+01	0	0
1236797	2.100000e+00	-1.246455e+02	6.351782e-01	0	0
1238750	2.100000e+00	-1.171371e+02	-7.182235e+00	0	0
1240703	2.100000e+00	-1.217212e+02	1.779297e+01	0	0
1242656	2.100000e+00	-1.124075e+02	8.740221e+01	0	0
1244609	2.099724e+00	-1.135208e+02	4.702317e+01	0	0
1246563	2.099277e+00	-1.266687e+02	3.812631e-01	0	0
1248516	2.100000e+00	-1.141588e+02	-4.065962e+00	0	0
1250469	2.100000e+00	-1.262405e+02	-5.665570e+01	0	0
1252422	2.100000e+00	-1.272874e+02	-8.178356e+01	0	0
1254375	2.100000e+00	-1.292325e+02	-4.123988e+01	0	0
1256328	2.100000e+00	-1.333028e+02	1.287749e+01	0	0
1258281	2.100000e+00	-1.370532e+02	4.671132e+00	0	0
1260234	2.099723e+00	-1.333449e+02	8.183351e+00	0	0
1262188	2.099000e+00	-1.227848e+02	5.432777e+01	0	0
1264141	2.099000e+00	-1.222091e+02	7.309988e+01	0	0
1266094	2.099000e+00	-1.125042e+02	-1.207578e+01	0	0
1268047	2.099000e+00	-1.081113e+02	8.962924e+00	0	0
1270000	2.099000e+00	-1.116833e+02	-2.569916e+01	0	0
1271953	2.099000e+00	-1.113742e+02	-8.702309e+01	0	0
1273906	2.099000e+00	-1.232226e+02	-2.017339e+01	0	0
1275859	2.099000e+00	-1.360866e+02	-8.001176e+00	0	0
1277813	2.099000e+00	-1.281929e+02	-8.876161e+00	0	0
1279766	2.099000e+00	-1.194979e+02	-5.721656e+00	0	0
1281719	2.099000e+00	-1.007935e+02	3.730410e+01	0	0
1283672	2.099000e+00	-7.042439e+01	6.416016e+01	0	0
1285625	2.099000e+00	-7.418273e+01	-6.220650e+00	0	0
1287578	2.099000e+00	-5.491286e+01	1.249977e+00	0	0
1289531	2.099000e+00	-2.451934e+01	-2.180212e+01	0	0
1291484	2.099000e+00	-1.739821e+00	-7.926036e+01	0	0
1293438	2.099000e+00	8.600038e+00	-3.257181e+01	0	0
1295391	2.099000e+00	1.867397e+01	-3.256417e+00	0	0
1297344	2.099000e+00	1.513351e+01	2.372881e+00	0	0
1299297	2.099000e+00	9.356298e+00	-3.996264e+00	0	0
1301250	2.099000e+00	5.232185e+00	2.148838e+01	0	0
1303203	2.099000e+00	1.297187e+01	7.324741e+01	0	0
1305156	2.099000e+00	2.340750e+01	1.346135e+01	0	0
1307109	2.099000e+00	2.032995e+01	3.592256e+00	0	0
1309063	2.099000e+00	3.372828e+01	-1.880636e+01	0	0
1311016	2.099000e+00	3.303288e+01	-8.114630e+01	0	0
1312969	2.099000e+00	4.353134e+01	-4.964349e+01	0	0
1314922	2.099000e+00	4.815308e+01	-1.694658e+01	0	0
1316875	2.099000e+00	4.374841e+01	5.543539e+00	0	0
1318828	2.099000e+00	4.621702e+01	-2.255636e+00	0	0
1320781	2.099000e+00	5.940547e+01	2.372755e+01	0	0
1322734	2.099000e+00	7.467775e+01	8.741536e+01	0	0
1324688	2.099000e+00	9.589356e+01	3.931521e+01	0	0
1326641	2.099000e+00	1.209299e+02	3.451016e+00	0	0
1328594	2.099000e+00	1.170901e+02	-7.043929e+00	0	0
1330547	2.099000e+00	1.018903e+02	-6.898764e+01	0	0
1332500	2.099000e+00	9.941417e+01	-7.550436e+01	0	0
1334453	2.099000e+00	7.058569e+01	-2.997039e+01	0	0
1336406	2.099000e+00	6.617019e+01	5.532649e+00	0	0
1338359	2.099000e+00	6.933942e+01	3.057647e-01	0	0
1340313	2.099000e+00	6.264440e+01	5.466029e+00	0	0
1342266	2.099000e+00	5.223685e+01	5.626506e+01	0	0
1344219	2.099000e+00	5.047603e+01	7.326959e+01	0	0
1346172	2.099000e+00	4.170119e+01	-1.216066e+01	0	0
1348125	2.099000e+00	3.573717e+01	9.092277e+00	0	0
1350078	2.099000e+00	1.860464e+01	-2.618803e+01	0	0
1352031	2.099000e+00	4.923811e-01	-8.671308e+01	0	0
1353984	2.099000e+00	-1.655458e+01	-1.761207e+01	0	0
1355938	2.099000e+00	-4.140664e+01	-6.039949e+00	0	0
1357891	2.099000e+00	-6.488342e+01	-5.539096e+00	0	0
1359844	2.099000e+00	-9.209833e+01	-6.293800e+00	0	0
1361797	2.099000e+00	-1.034100e+02	3.203312e+01	0	0
1363750	2.099000e+00	-1.142804e+02	6.243779e+01	0	0
1365703	2.099000e+00	-1.041252e+02	-1.549956e+01	0	0
1367656	2.099000e+00	-1.102128e+02	4.193879e+00	0	0
1369609	2.099000e+00	-1.267837e+02	-2.090334e+01	0	0
1371563	2.099000e+00	-1.285375e+02	-7.958061e+01	0	0
1373516	2.099000e+00	-1.208051e+02	-3.225290e+01	0	0
1375469	2.099000e+00	-1.505624e+02	2.842209e+00	0	0
1377422	2.099000e+00	-1.671915e+02	7.287323e-01	0	0
1379375	2.099000e+00	-1.618720e+02	-4.838862e+00	0	0
1381328	2.098719e+00	-1.594850e+02	2.157242e+01	0	0
1383281	2.098000e+00	-1.559604e+02	6.864600e+01	0	0
1385234	2.098000e+00	-1.513585e+02	3.730100e+00	0	0
1387188	2.098000e+00	-1.521222e+02	5.226210e+00	0	0
1389141	2.098000e+00	-1.582717e+02	-1.842812e+01	0	0
1391094	2.098281e+00	-1.654300e+02	-7.945724e+01	0	0
1393047	2.098719e+00	-1.686606e+02	-4.437564e+01	0	0
1395000	2.098000e+00	-1.621433e+02	-6.290198e+00	0	0
1396953	2.098281e+00	-1.715564e+02	5.671311e+00	0	0
1398906	2.099000e+00	-1.772210e+02	-4.552585e-01	0	0
1400859	2.098719e+00	-1.806835e+02	2.373290e+01	0	0
1402813	2.098000e+00	-1.735793e+02	8.504646e+01	0	0
1404766	2.098000e+00	-1.645231e+02	3.915575e+01	0	0
1406719	2.098000e+00	-1.658000e+02	4.835376e+00	0	0
1408672	2.098000e+00	-1.630431e+02	-9.861455e+00	0	0
1410625	2.098000e+00	-1.698678e+02	-7.364815e+01	0	0
1412578	2.098000e+00	-1.837291e+02	-7.426032e+01	0	0
1414531	2.098000e+00	-1.757003e+02	-3.763290e+01	0	0
1416484	2.098000e+00	-1.820160e+02	7.283960e+00	0	0
1418438	2.098282e+00	-1.959970e+02	1.561876e+00	0	0
1420391	2.098718e+00	-1.860201e+02	5.254822e+00	0	0
1422344	2.098000e+00	-1.812017e+02	5.151310e+01	0	0
1424297	2.098000e+00	-1.882971e+02	7.023182e+01	0	0
1426250	2.098000e+00	-1.852809e+02	-1.230144e+01	0	0
1428203	2.098000e+00	-1.798822e+02	6.751239e+00	0	0
1430156	2.098000e+00	-1.755175e+02	-2.865554e+01	0	0
1432109	2.098000e+00	-1.850199e+02	-8.605060e+01	0	0
1434063	2.098000e+00	-1.803030e+02	-1.902842e+01	0	0
1436016	2.098000e+00	-1.822672e+02	-9.276903e+00	0	0
1437969	2.098000e+00	-1.937176e+02	-9.064265e+00	0	0
1439922	2.098000e+00	-1.968393e+02	-3.756568e+00	0	0
1441875	2.098000e+00	-2.170057e+02	4.240795e+01	0	0
1443828	2.098000e+00	-2.434159e+02	5.930542e+01	0	0
1445781	2.098000e+00	-2.502373e+02	-1.385177e+01	0	0
1447734	2.098000e+00	-2.320780e+02	5.624917e+00	0	0
1449688	2.098000e+00	-1.934558e+02	-1.866935e+01	0	0
1451641	2.098000e+00	-1.099349e+02	-7.307372e+01	0	0
1453594	2.098000e+00	-2.720421e+01	-3.012378e+01	0	0
1455547	2.098000e+00	6.064295e+01	-6.751283e+00	0	0
1457500	2.098000e+00	1.406469e+02	5.310967e+00	0	0
1459453	2.098000e+00	2.739910e+02	-4.500912e+00	0	0
1461406	2.098000e+00	5.104286e+02	2.213127e+01	0	0
1463359	2.098000e+00	7.799483e+02	6.942128e+01	0	0
1465313	2.098000e+00	1.035803e+03	3.819858e+00	0	0
1467266	2.098000e+00	1.310557e+03	5.083722e+00	0	0
1469219	2.098000e+00	1.574017e+03	-1.798966e+01	0	0
1471172	2.098000e+00	1.790632e+03	-8.226944e+01	0	0
1473125	2.098000e+00	1.834768e+03	-5.649285e+01	0	0
1475078	2.098000e+00	1.713708e+03	-1.327372e+01	0	0
1477031	2.098000e+00	1.518009e+03	5.040546e+00	0	0
1478984	2.098000e+00	1.197717e+03	-3.075805e+00	0	0
1480938	2.098000e+00	9.282436e+02	2.100186e+01	0	0
1482891	2.098000e+00	7.390260e+02	8.539736e+01	0	0
1484844	2.098000e+00	6.069681e+02	4.321982e+01	0	0
1486797	2.098000e+00	3.900184e+02	2.290546e+00	0	0
1488750	2.098000e+00	3.083231e+01	-1.111123e+01	0	0
1490703	2.098000e+00	-1.988328e+02	-7.461017e+01	0	0
1492656	2.098000e+00	-2.652325e+02	-7.291636e+01	0	0
1494609	2.098000e+00	-2.841060e+02	-3.271360e+01	0	0
1496563	2.098000e+00	-2.655918e+02	8.463378e+00	0	0
1498516	2.098000e+00	-2.503085e+02	1.429238e-01	0	0
1500469	2.098000e+00	-2.340787e+02	1.084024e+01	0	0
1502422	2.098000e+00	-1.919719e+02	6.800329e+01	0	0
1504375	2.098000e+00	-1.598006e+02	6.625383e+01	0	0
1506328	2.098000e+00	-1.291286e+02	-1.101564e+01	0	0
1508281	2.098000e+00	-1.050132e+02	7.709979e+00	0	0
1510234	2.098000e+00	-9.152833e+01	-2.789655e+01	0	0
1512188	2.098000e+00	-1.055252e+02	-8.816916e+01	0	0
1514141	2.098000e+00	-1.087988e+02	-2.243277e+01	0	0
1516094	2.098000e+00	-1.194248e+02	-6.293849e+00	0	0
1518047	2.097715e+00	-1.387119e+02	-4.281713e+00	0	0
1520000	2.097000e+00	-1.326109e+02	-5.940132e+00	0	0
1521953	2.097000e+00	-1.351419e+02	3.016501e+01	0	0
1523906	2.097000e+00	-1.379194e+02	6.430964e+01	0	0
1525859	2.097000e+00	-1.305864e+02	-1.282564e+01	0	0
1527813	2.097285e+00	-1.300569e+02	8.302479e+00	0	0
1529766	2.097715e+00	-1.232299e+02	-1.785598e+01	0	0
1531719	2.097000e+00	-1.323641e+02	-7.578942e+01	0	0
1533672	2.097000e+00	-1.354207e+02	-2.840814e+01	0	0
1535625	2.097000e+00	-1.375251e+02	1.021445e+00	0	0
1537578	2.097000e+00	-1.459789e+02	1.069430e+00	0	0
1539531	2.097000e+00	-1.373184e+02	-5.324633e+00	0	0
1541484	2.097000e+00	-1.419642e+02	2.204277e+01	0	0
1543438	2.097000e+00	-1.286967e+02	6.953991e+01	0	0
1545391	2.097000e+00	-1.180859e+02	4.142198e+00	0	0
1547344	2.097000e+00	-1.132634e+02	5.605847e+00	0	0
1549297	2.097000e+00	-1.115754e+02	-1.930293e+01	0	0
1551250	2.097000e+00	-1.244821e+02	-7.330494e+01	0	0
1553203	2.097000e+00	-1.179064e+02	-3.364675e+01	0	0
1555156	2.097000e+00	-1.181005e+02	-1.542962e+01	0	0
1557109	2.097000e+00	-1.286694e+02	4.565997e+00	0	0
1559063	2.097000e+00	-1.303484e+02	-3.614050e+00	0	0
1561016	2.097000e+00	-1.402736e+02	2.065210e+01	0	0
1562969	2.097000e+00	-1.219455e+02	8.042475e+01	0	0
1564922	2.097000e+00	-1.173923e+02	3.606849e+01	0	0
1566875	2.097000e+00	-1.103625e+02	2.817184e-01	0	0
1568828	2.097000e+00	-1.047269e+02	-1.733012e+01	0	0
1570781	2.097000e+00	-1.076113e+02	-8.345457e+01	0	0
1572734	2.097000e+00	-1.062721e+02	-6.493607e+01	0	0
1574688	2.097000e+00	-9.580693e+01	-2.616673e+01	0	0
1576641	2.097000e+00	-1.083001e+02	3.965962e+00	0	0
1578594	2.097000e+00	-1.049442e+02	-3.171477e+00	0	0
1580547	2.097000e+00	-9.673078e+01	9.995378e+00	0	0
1582500	2.097000e+00	-1.068496e+02	6.965252e+01	0	0
1584453	2.097000e+00	-1.062643e+02	6.420639e+01	0	0
1586406	2.097000e+00	-1.011872e+02	-1.056788e+01	0	0
1588359	2.097000e+00	-8.569825e+01	8.226882e+00	0	0
1590313	2.097000e+00	-9.133200e+01	-2.501712e+01	0	0
1592266	2.097000e+00	-9.003150e+01	-8.614067e+01	0	0
1594219	2.097000e+00	-9.198415e+01	-2.442556e+01	0	0
1596172	2.097000e+00	-8.239793e+01	9.012901e-01	0	0
1598125	2.097000e+00	-8.570956e+01	-1.110643e+00	0	0
1600078	2.097000e+00	-8.948144e+01	-3.975600e+00	0	0
1602031	2.097000e+00	-7.942063e+01	3.620632e+01	0	0
1603984	2.097000e+00	-7.719700e+01	7.049628e+01	0	0
1605938	2.097000e+00	-6.979239e+01	-1.290121e+01	0	0
1607891	2.097000e+00	-6.386092e+01	8.568968e+00	0	0
1609844	2.097000e+00	-7.016534e+01	-2.466576e+01	0	0
1611797	2.097000e+00	-6.308424e+01	-8.182399e+01	0	0
1613750	2.097000e+00	-6.083065e+01	-1.830150e+01	0	0
1615703	2.097000e+00	-6.000347e+01	1.170572e+00	0	0
1617656	2.097000e+00	-5.767962e+01	1.121407e+00	0	0
1619609	2.097000e+00	-5.129005e+01	-5.656010e+00	0	0
1621563	2.097000e+00	-5.743699e+01	2.340710e+01	0	0
1623516	2.097000e+00	-3.958549e+01	7.190338e+01	0	0
1625469	2.097000e+00	-1.477838e+01	2.933485e+00	0	0
1627422	2.097000e+00	-2.119450e+01	5.353702e+00	0	0
1629375	2.097000e+00	-1.123351e+01	-1.999251e+01	0	0
1631328	2.097000e+00	-1.715335e+01	-7.927263e+01	0	0
1633281	2.097000e+00	-1.960917e+01	-3.946613e+01	0	0
1635234	2.097000e+00	-1.376392e+01	-6.715645e+00	0	0
1637188	2.097000e+00	-1.561356e+01	2.164172e+00	0	0
1639141	2.097000e+00	-1.088421e+01	-4.329837e+00	0	0
1641094	2.097000e+00	-1.764012e+00	1.990136e+01	0	0
1643047	2.097000e+00	6.579365e-01	7.638211e+01	0	0
1645000	2.097000e+00	3.852273e+00	2.852673e+01	0	0
1646953	2.097000e+00	1.929430e+01	8.383710e-01	0	0
1648906	2.097000e+00	3.135046e+01	-1.617048e+01	0	0
1650859	2.097000e+00	3.563386e+01	-7.995348e+01	0	0
1652813	2.097000e+00	3.766331e+01	-6.232313e+01	0	0
1654766	2.097000e+00	4.988381e+01	-1.927022e+01	0	0
1656719	2.096711e+00	5.522895e+01	3.090735e+00	0	0
1658672	2.096289e+00	6.342846e+01	-4.178378e+00	0	0
1660625	2.097000e+00	6.724992e+01	1.521675e+01	0	0
1662578	2.097000e+00	8.208922e+01	8.049113e+01	0	0
1664531	2.096711e+00	9.205434e+01	5.707781e+01	0	0
1666484	2.096289e+00	8.780925e+01	-9.228718e+00	0	0
1668438	2.097000e+00	9.172639e+01	7.623136e+00	0	0
1670391	2.097000e+00	9.303255e+01	-2.316791e+01	0	0
1672344	2.096711e+00	1.097702e+02	-7.739375e+01	0	0
1674297	2.096000e+00	1.242950e+02	-1.820138e+01	0	0
1676250	2.096289e+00	1.206794e+02	1.596317e+00	0	0
1678203	2.096711e+00	1.289414e+02	-2.752189e-01	0	0
1680156	2.096000e+00	1.432326e+02	-3.866875e-02	0	0
1682109	2.096000e+00	1.612359e+02	4.095694e+01	0	0
1684063	2.096000e+00	1.777019e+02	6.426307e+01	0	0
1686016	2.096000e+00	2.071459e+02	-1.097328e+01	0	0
1687969	2.096000e+00	2.110524e+02	7.772371e+00	0	0
1689922	2.096000e+00	2.043468e+02	-2.196924e+01	0	0
1691875	2.096000e+00	2.145135e+02	-7.700638e+01	0	0
1693828	2.096000e+00	2.130580e+02	-2.361314e+01	0	0
1695781	2.096000e+00	2.317198e+02	2.164466e+00	0	0
1697734	2.096000e+00	2.355246e+02	7.001107e-01	0	0
1699688	2.096000e+00	2.434869e+02	-4.974033e+00	0	0
1701641	2.096000e+00	2.614047e+02	2.094532e+01	0	0
1703594	2.096000e+00	2.890248e+02	6.881931e+01	0	0
1705547	2.096000e+00	3.051482e+02	1.021267e+01	0	0
1707500	2.096000e+00	3.246836e+02	3.881987e+00	0	0
1709453	2.096000e+00	3.327981e+02	-1.866955e+01	0	0
1711406	2.096000e+00	3.390313e+02	-7.666842e+01	0	0
1713359	2.096000e+00	3.389209e+02	-4.066429e+01	0	0
1715313	2.096000e+00	3.502428e+02	-6.889799e+00	0	0
1717266	2.096000e+00	3.523676e+02	1.806116e+00	0	0
1719219	2.096000e+00	3.629458e+02	-5.040178e+00	0	0
1721172	2.096000e+00	3.727879e+02	2.017831e+01	0	0
1723125	2.096000e+00	3.826722e+02	7.800916e+01	0	0
1725078	2.096000e+00	3.973047e+02	2.801771e+01	0	0
1727031	2.096000e+00	4.068420e+02	1.588043e+00	0	0
1728984	2.096000e+00	4.288393e+02	-1.988085e+01	0	0
1730938	2.096000e+00	4.152644e+02	-8.378060e+01	0	0
1732891	2.096000e+00	4.109182e+02	-5.270727e+01	0	0
1734844	2.096000e+00	4.068314e+02	-2.147066e+01	0	0
1736797	2.096000e+00	4.009206e+02	3.688198e+00	0	0
1738750	2.096000e+00	3.910955e+02	-4.972886e+00	0	0
1740703	2.096000e+00	3.765967e+02	1.751216e+01	0	0
1742656	2.096000e+00	3.669877e+02	9.044730e+01	0	0
1744609	2.096000e+00	3.644698e+02	6.234882e+01	0	0
1746563	2.096000e+00	3.616128e+02	-1.022043e+01	0	0
1748516	2.096000e+00	3.368429e+02	8.126398e+00	0	0
1750469	2.096000e+00	3.119140e+02	-2.521211e+01	0	0
1752422	2.096000e+00	2.786323e+02	-8.802985e+01	0	0
1754375	2.096000e+00	2.348695e+02	-2.707681e+01	0	0
1756328	2.096000e+00	1.980898e+02	2.532049e+00	0	0
1758281	2.096000e+00	1.889694e+02	-1.114509e-01	0	0
1760234	2.096000e+00	1.632139e+02	-2.678584e+00	0	0
1762188	2.096000e+00	1.352756e+02	3.900555e+01	0	0
1764141	2.096000e+00	1.185406e+02	7.232538e+01	0	0
1766094	2.096000e+00	9.044225e+01	-1.282074e+01	0	0
1768047	2.096000e+00	6.724936e+01	9.055785e+00	0	0
1770000	2.096000e+00	3.778674e+01	-2.650754e+01	0	0
1771953	2.096000e+00	3.063223e+01	-8.108626e+01	0	0
1773906	2.096000e+00	1.361566e+00	-1.188650e+01	0	0
1775859	2.096000e+00	-2.647539e+01	-8.395505e-03	0	0
1777813	2.096000e+00	-4.696058e+01	1.276545e+00	0	0
1779766	2.096000e+00	-5.569105e+01	-6.044589e+00	0	0
1781719	2.096000e+00	-6.872374e+01	2.392953e+01	0	0
1783672	2.096000e+00	-6.804602e+01	7.142775e+01	0	0
1785625	2.096000e+00	-7.869787e+01	1.595842e+00	0	0
1787578	2.096000e+00	-7.766000e+01	5.273449e+00	0	0
1789531	2.096000e+00	-1.013034e+02	-1.983387e+01	0	0
1791484	2.096000e+00	-1.199494e+02	-8.351626e+01	0	0
1793438	2.096000e+00	-1.283003e+02	-4.975498e+01	0	0
1795391	2.096000e+00	-1.419232e+02	-6.929543e+00	0	0
1797344	2.096000e+00	-1.369164e+02	1.584624e+00	0	0
1799297	2.096000e+00	-1.371386e+02	-5.246659e+00	0	0
1801250	2.096000e+00	-1.418363e+02	2.127040e+01	0	0
1803203	2.096000e+00	-1.469871e+02	7.575443e+01	0	0
1805156	2.096000e+00	-1.394112e+02	2.152182e+01	0	0
1807109	2.096000e+00	-1.393788e+02	2.288913e+00	0	0
1809063	2.096000e+00	-1.351138e+02	-1.891928e+01	0	0
1811016	2.096000e+00	-1.450443e+02	-8.398652e+01	0	0
1812969	2.096000e+00	-1.435860e+02	-6.298200e+01	0	0
1814922	2.096000e+00	-1.543096e+02	-2.529081e+01	0	0
1816875	2.096000e+00	-1.565734e+02	4.209115e+00	0	0
1818828	2.096000e+00	-1.637286e+02	-5.001963e+00	0	0
1820781	2.096000e+00	-1.634447e+02	1.757595e+01	0	0
1822734	2.096000e+00	-1.573358e+02	8.787637e+01	0	0
1824688	2.096000e+00	-1.603891e+02	5.802303e+01	0	0
1826641	2.096000e+00	-1.596802e+02	-1.059886e+01	0	0
1828594	2.096000e+00	-1.577381e+02	3.880276e+00	0	0
1830547	2.096000e+00	-1.534985e+02	-3.270811e+01	0	0
1832500	2.096000e+00	-1.511700e+02	-8.489536e+01	0	0
1834453	2.096000e+00	-1.624915e+02	-2.684081e+01	0	0
1836406	2.096000e+00	-1.670313e+02	3.139621e+00	0	0
1838359	2.096000e+00	-1.806871e+02	-1.676783e+00	0	0
1840313	2.096000e+00	-1.699096e+02	4.414065e+00	0	0
1842266	2.096000e+00	-1.693667e+02	5.619635e+01	0	0
1844219	2.096000e+00	-1.760710e+02	6.782488e+01	0	0
1846172	2.096000e+00	-1.608078e+02	-1.165108e+01	0	0
1848125	2.096000e+00	-1.633149e+02	8.831752e+00	0	0
1850078	2.096000e+00	-1.689750e+02	-2.580263e+01	0	0
1852031	2.096000e+00	-1.690559e+02	-7.909273e+01	0	0
1853984	2.096000e+00	-1.678554e+02	-1.210909e+01	0	0
1855938	2.096000e+00	-1.683466e+02	4.558623e-01	0	0
1857891	2.096000e+00	-1.613358e+02	6.303620e-01	0	0
1859844	2.096000e+00	-1.703913e+02	-2.734639e+00	0	0
1861797	2.096000e+00	-1.664815e+02	3.191049e+01	0	0
1863750	2.096000e+00	-1.655965e+02	6.922246e+01	0	0
1865703	2.095705e+00	-1.664424e+02	1.935850e+00	0	0
1867656	2.095294e+00	-1.600950e+02	5.605506e+00	0	0
1869609	2.095706e+00	-1.566667e+02	-2.080887e+01	0	0
1871563	2.095295e+00	-1.579604e+02	-7.922683e+01	0	0
1873516	2.096000e+00	-1.619030e+02	-3.862598e+01	0	0
1875469	2.096000e+00	-1.613893e+02	-7.740956e+00	0	0
1877422	2.096000e+00	-1.644000e+02	2.098880e+00	0	0
1879375	2.095705e+00	-1.607360e+02	-5.494996e+00	0	0
1881328	2.095295e+00	-1.563246e+02	2.180879e+01	0	0
1883281	2.096000e+00	-1.484077e+02	7.461060e+01	0	0
1885234	2.095705e+00	-1.394668e+02	1.746820e+01	0	0
1887188	2.095000e+00	-1.437168e+02	3.105499e+00	0	0
1889141	2.095295e+00	-1.335387e+02	-1.992401e+01	0	0
1891094	2.096000e+00	-1.357366e+02	-8.472752e+01	0	0
1893047	2.096000e+00	-1.488838e+02	-5.666114e+01	0	0
1895000	2.096000e+00	-1.400271e+02	-1.925932e+01	0	0
1896953	2.096000e+00	-1.466157e+02	3.684398e+00	0	0
1898906	2.096000e+00	-1.376145e+02	-5.933248e+00	0	0
1900859	2.096000e+00	-1.395608e+02	2.224314e+01	0	0
1902813	2.096000e+00	-1.346320e+02	9.520065e+01	0	0
1904766	2.096000e+00	-1.256922e+02	4.888772e+01	0	0
1906719	2.095704e+00	-1.292392e+02	-6.068020e+00	0	0
1908672	2.095000e+00	-1.216537e+02	-4.920590e+00	0	0
1910625	2.095296e+00	-1.287931e+02	-5.512778e+01	0	0
1912578	2.095704e+00	-1.315486e+02	-9.061497e+01	0	0
1914531	2.095000e+00	-1.386732e+02	-3.879825e+01	0	0
1916484	2.095296e+00	-1.461013e+02	4.800715e+00	0	0
1918438	2.096000e+00	-1.428776e+02	-9.841778e-01	0	0
1920391	2.096000e+00	-1.423067e+02	-3.173733e-01	0	0
1922344	2.095704e+00	-1.390846e+02	4.848811e+01	0	0
1924297	2.095000e+00	-1.291801e+02	7.782999e+01	0	0
1926250	2.095000e+00	-1.241802e+02	-9.606776e+00	0	0
1928203	2.095000e+00	-1.122982e+02	7.281913e+00	0	0
1930156	2.095000e+00	-1.081025e+02	-3.542928e+01	0	0
1932109	2.095000e+00	-1.171645e+02	-8.429791e+01	0	0
1934063	2.095297e+00	-1.176975e+02	-1.659994e+01	0	0
1936016	2.096000e+00	-1.063923e+02	8.840829e-01	0	0
1937969	2.096000e+00	-1.229707e+02	-2.556505e+00	0	0
1939922	2.096000e+00	-1.246267e+02	-4.328743e+00	0	0
1941875	2.096000e+00	-1.247487e+02	3.513067e+01	0	0
1943828	2.095703e+00	-1.312349e+02	7.169259e+01	0	0
1945781	2.095297e+00	-1.156321e+02	6.883323e+00	0	0
1947734	2.095703e+00	-1.035987e+02	5.021576e+00	0	0
1949688	2.095000e+00	-9.760429e+01	-2.150595e+01	0	0
1951641	2.095000e+00	-1.037513e+02	-8.148117e+01	0	0
1953594	2.095297e+00	-1.077322e+02	-3.990750e+01	0	0
1955547	2.096000e+00	-1.156593e+02	-9.144491e+00	0	0
1957500	2.096000e+00	-1.290975e+02	2.624407e+00	0	0
1959453	2.096000e+00	-1.216618e+02	-4.141781e+00	0	0
1961406	2.096000e+00	-1.262992e+02	2.495295e+01	0	0
1963359	2.096000e+00	-1.148301e+02	7.735348e+01	0	0
1965313	2.096000e+00	-1.079706e+02	1.743030e+01	0	0
1967266	2.096000e+00	-1.069482e+02	3.750440e+00	0	0
1969219	2.096000e+00	-9.724931e+01	-1.897952e+01	0	0
1971172	2.096000e+00	-1.179324e+02	-8.471007e+01	0	0
1973125	2.096000e+00	-1.315133e+02	-6.620990e+01	0	0
1975078	2.096000e+00	-1.297632e+02	-2.445962e+01	0	0
1977031	2.096000e+00	-1.246295e+02	4.275264e+00	0	0
1978984	2.096000e+00	-1.360069e+02	-5.189358e+00	0	0
1980938	2.096000e+00	-1.225589e+02	2.033439e+01	0	0
1982891	2.096000e+00	-1.067564e+02	8.780436e+01	0	0
1984844	2.096000e+00	-1.098243e+02	4.836281e+01	0	0
1986797	2.096000e+00	-1.199819e+02	-5.477728e+00	0	0
1988750	2.096000e+00	-1.249835e+02	-3.840263e+00	0	0
1990703	2.096000e+00	-1.235560e+02	-5.343330e+01	0	0
1992656	2.096000e+00	-1.268903e+02	-7.841718e+01	0	0
1994609	2.096000e+00	-1.282366e+02	-2.626491e+01	0	0
1996563	2.096000e+00	-1.312696e+02	3.569557e+00	0	0
1998516	2.096000e+00	-1.281871e+02	3.179995e-01	0	0
2000469	2.096000e+00	-1.308384e+02	6.131403e+00	0	0
2002422	2.096000e+00	-1.330463e+02	5.835288e+01	0	0
2004375	2.096000e+00	-1.150983e+02	7.127129e+01	0	0
2006328	2.096000e+00	-1.057248e+02	-1.237373e+01	0	0
2008281	2.096000e+00	-1.206641e+02	8.895945e+00	0	0
2010234	2.096000e+00	-1.260975e+02	-2.824135e+01	0	0
2012188	2.096000e+00	-1.269965e+02	-9.077104e+01	0	0
2014141	2.096000e+00	-1.309586e+02	-2.730167e+01	0	0
2016094	2.096000e+00	-1.370939e+02	-3.660379e+00	0	0
2018047	2.096000e+00	-1.362914e+02	-5.058070e+00	0	0
2020000	2.096000e+00	-1.285816e+02	-7.394426e+00	0	0
2021953	2.096000e+00	-1.320448e+02	3.132020e+01	0	0
2023906	2.096000e+00	-1.156158e+02	7.233471e+01	0	0
2025859	2.096000e+00	-1.029367e+02	-6.573648e-01	0	0
2027813	2.096000e+00	-9.896908e+01	6.003303e+00	0	0
2029766	2.096000e+00	-1.074757e+02	-2.215352e+01	0	0
2031719	2.096000e+00	-1.128827e+02	-8.693382e+01	0	0
2033672	2.096000e+00	-1.202402e+02	-5.216549e+01	0	0
2035625	2.096000e+00	-1.249802e+02	-1.409576e+01	0	0
2037578	2.096000e+00	-1.290408e+02	5.426555e+00	0	0
2039531	2.096000e+00	-1.319621e+02	-3.935398e+00	0	0
2041484	2.096000e+00	-1.249595e+02	2.619038e+01	0	0
2043438	2.096000e+00	-1.168855e+02	7.849320e+01	0	0
2045391	2.096000e+00	-1.124365e+02	1.428524e+01	0	0
2047344	2.096000e+00	-1.075696e+02	3.961461e+00	0	0
2049297	2.096000e+00	-9.631370e+01	-2.029905e+01	0	0
2051250	2.096000e+00	-8.780017e+01	-8.638925e+01	0	0
2053203	2.096000e+00	-7.978715e+01	-6.759226e+01	0	0
2055156	2.096000e+00	-7.819530e+01	-3.220380e+01	0	0
2057109	2.096000e+00	-5.406540e+01	9.413776e+00	0	0
2059063	2.096000e+00	-3.743805e+01	-2.660078e+00	0	0
2061016	2.096000e+00	-3.028111e+01	2.593276e+01	0	0
2062969	2.096000e+00	-1.639693e+01	9.438974e+01	0	0
2064922	2.096000e+00	2.686095e-02	4.853376e+01	0	0
2066875	2.096000e+00	2.071760e+01	9.380356e-01	0	0
2068828	2.096000e+00	2.483847e+01	-8.131600e+00	0	0
2070781	2.096000e+00	2.807601e+01	-6.826129e+01	0	0
2072734	2.096000e+00	3.514705e+01	-8.682451e+01	0	0
2074688	2.096000e+00	2.815847e+01	-4.780662e+01	0	0
2076641	2.096000e+00	2.614181e+01	7.233975e+00	0	0
2078594	2.096000e+00	3.041024e+01	-9.156059e-02	0	0
2080547	2.096000e+00	4.451875e+01	5.017624e+00	0	0
2082500	2.096000e+00	5.711093e+01	5.789852e+01	0	0
2084453	2.096000e+00	6.165700e+01	7.548428e+01	0	0
2086406	2.096000e+00	7.126773e+01	-1.352942e+01	0	0
2088359	2.096000e+00	7.391474e+01	8.816485e+00	0	0
2090313	2.096000e+00	8.454412e+01	-3.277607e+01	0	0
2092266	2.096000e+00	1.029140e+02	-9.227461e+01	0	0
2094219	2.096000e+00	1.073149e+02	-1.781938e+01	0	0
2096172	2.096301e+00	1.135017e+02	-7.242143e+00	0	0
2098125	2.097000e+00	1.034092e+02	-8.693669e+00	0	0
2100078	2.097000e+00	1.124604e+02	-1.647220e+00	0	0
2102031	2.096699e+00	1.139095e+02	5.136828e+01	0	0
2103984	2.096000e+00	1.173539e+02	7.121107e+01	0	0
2105938	2.096302e+00	1.187617e+02	-7.593182e-02	0	0
2107891	2.097000e+00	1.006913e+02	4.211953e+00	0	0
2109844	2.097000e+00	1.024838e+02	-2.362944e+01	0	0
2111797	2.097000e+00	9.314128e+01	-8.815641e+01	0	0
2113750	2.097000e+00	7.931879e+01	-4.682824e+01	0	0
2115703	2.097000e+00	8.052710e+01	-8.192792e+00	0	0
2117656	2.097000e+00	5.220920e+01	2.344118e+00	0	0
2119609	2.097000e+00	3.000498e+01	-5.491971e+00	0	0
2121563	2.097000e+00	1.238417e+01	2.540851e+01	0	0
2123516	2.097000e+00	-6.772442e+00	7.376012e+01	0	0
2125469	2.097000e+00	-1.205602e+01	7.159708e+00	0	0
2127422	2.097000e+00	-2.568213e+01	5.588512e+00	0	0
2129375	2.097000e+00	-2.886058e+01	-1.904947e+01	0	0
2131328	2.097000e+00	-5.748043e+01	-8.501146e+01	0	0
2133281	2.097000e+00	-8.822296e+01	-6.036288e+01	0	0
2135234	2.097000e+00	-9.061067e+01	-1.711504e+01	0	0
2137188	2.097000e+00	-1.041116e+02	8.108790e+00	0	0
2139141	2.097000e+00	-1.119979e+02	-1.253626e+00	0	0
2141094	2.097000e+00	-1.091214e+02	2.627250e+01	0	0
2143047	2.097000e+00	-1.257511e+02	9.336494e+01	0	0
2145000	2.097000e+00	-1.286888e+02	4.782940e+01	0	0
2146953	2.097000e+00	-1.155572e+02	1.250639e+00	0	0
2148906	2.097000e+00	-1.120165e+02	-7.635583e+00	0	0
2150859	2.097000e+00	-1.161443e+02	-6.860182e+01	0	0
2152813	2.097000e+00	-1.238363e+02	-7.762322e+01	0	0
2154766	2.097000e+00	-1.347136e+02	-2.978078e+01	0	0
2156719	2.097000e+00	-1.237949e+02	4.280655e+00	0	0
2158672	2.097000e+00	-1.398901e+02	-3.098771e+00	0	0
2160625	2.097000e+00	-1.622425e+02	9.488941e+00	0	0
2162578	2.097000e+00	-1.525052e+02	7.158425e+01	0	0
2164531	2.097000e+00	-1.435453e+02	6.899210e+01	0	0
2166484	2.097000e+00	-1.509504e+02	-1.364088e+01	0	0
2168438	2.097303e+00	-1.426613e+02	6.649440e+00	0	0
2170391	2.097697e+00	-1.361239e+02	-3.290399e+01	0	0
2172344	2.097303e+00	-1.388201e+02	-8.895720e+01	0	0
2174297	2.098000e+00	-1.472738e+02	-1.728952e+01	0	0
2176250	2.098000e+00	-1.569167e+02	-5.781051e+00	0	0
2178203	2.098000e+00	-1.585970e+02	-6.494098e+00	0	0
2180156	2.098000e+00	-1.549441e+02	-2.142649e+00	0	0
2182109	2.098000e+00	-1.665582e+02	4.715040e+01	0	0
2184063	2.098000e+00	-1.610414e+02	6.283573e+01	0	0
2186016	2.098000e+00	-1.504641e+02	-1.374265e+01	0	0
2187969	2.098000e+00	-1.494434e+02	5.983827e+00	0	0
2189922	2.098000e+00	-1.504876e+02	-2.477593e+01	0	0
2191875	2.098000e+00	-1.660495e+02	-8.210710e+01	0	0
2193828	2.098000e+00	-1.542765e+02	-3.601341e+01	0	0
2195781	2.098000e+00	-1.674717e+02	-9.200560e+00	0	0
2197734	2.098000e+00	-1.730187e+02	4.807769e+00	0	0
2199688	2.098000e+00	-1.647680e+02	-5.284616e+00	0	0
2201641	2.098000e+00	-1.617544e+02	2.526079e+01	0	0
2203594	2.098000e+00	-1.473322e+02	7.713068e+01	0	0
2205547	2.098000e+00	-1.425485e+02	1.170276e+01	0	0
2207500	2.098000e+00	-1.508896e+02	4.413100e+00	0	0
2209453	2.098000e+00	-1.536622e+02	-2.151852e+01	0	0
2211406	2.098000e+00	-1.654910e+02	-8.472016e+01	0	0
2213359	2.098304e+00	-1.959577e+02	-4.913835e+01	0	0
2215313	2.099000e+00	-2.211413e+02	-1.300119e+01	0	0
2217266	2.099000e+00	-2.373905e+02	3.900706e+00	0	0
2219219	2.099000e+00	-2.221384e+02	-4.632788e+00	0	0
2221172	2.099000e+00	-1.938552e+02	2.383201e+01	0	0
2223125	2.099000e+00	-1.226910e+02	8.950045e+01	0	0
2225078	2.099000e+00	-3.396820e+01	4.226771e+01	0	0
2227031	2.099000e+00	7.388195e+01	5.504641e+00	0	0
2228984	2.099000e+00	1.691877e+02	-1.609368e+01	0	0
2230938	2.099000e+00	3.012990e+02	-8.604154e+01	0	0
2232891	2.099000e+00	5.308714e+02	-7.306128e+01	0	0
2234844	2.099000e+00	7.855350e+02	-3.582538e+01	0	0
2236797	2.099000e+00	1.034293e+03	1.326569e+01	0	0
2238750	2.099000e+00	1.303912e+03	1.235883e+00	0	0
2240703	2.099000e+00	1.530266e+03	1.164667e+01	0	0
2242656	2.099000e+00	1.739205e+03	7.359664e+01	0	0
2244609	2.099000e+00	1.850118e+03	7.193612e+01	0	0
2246563	2.099000e+00	1.751574e+03	-1.351282e+01	0	0
2248516	2.099000e+00	1.580915e+03	3.973941e+00	0	0
2250469	2.099306e+00	1.266666e+03	-4.001723e+01	0	0
2252422	2.100000e+00	9.942091e+02	-1.054930e+02	0	0
2254375	2.100000e+00	7.824499e+02	-3.283540e+01	0	0
2256328	2.100000e+00	6.174778e+02	-4.858941e+00	0	0
2258281	2.100000e+00	4.023403e+02	-5.266066e+00	0	0
2260234	2.100000e+00	9.342837e+01	-2.554873e+00	0	0
2262188	2.100000e+00	-1.214609e+02	5.066262e+01	0	0
2264141	2.100000e+00	-2.103600e+02	7.082982e+01	0	0
2266094	2.100000e+00	-2.538892e+02	-1.404745e+01	0	0
2268047	2.100000e+00	-2.600214e+02	1.197836e+01	0	0
2270000	2.100000e+00	-2.229708e+02	-2.223866e+01	0	0
2271953	2.100000e+00	-2.059726e+02	-9.201920e+01	0	0
2273906	2.100000e+00	-1.703257e+02	-4.236404e+01	0	0
2275859	2.100000e+00	-1.377243e+02	-2.748645e+00	0	0
2277813	2.100000e+00	-1.187643e+02	2.375875e+00	0	0
2279766	2.100000e+00	-1.185815e+02	-6.771873e+00	0	0
2281719	2.100000e+00	-1.095492e+02	2.754783e+01	0	0
2283672	2.100000e+00	-9.173069e+01	8.480116e+01	0	0
2285625	2.100000e+00	-8.244318e+01	1.332588e+01	0	0
2287578	2.100306e+00	-7.933359e+01	4.806034e+00	0	0
2289531	2.101000e+00	-8.400760e+01	-2.433040e+01	0	0
2291484	2.101000e+00	-7.016038e+01	-9.454862e+01	0	0
2293438	2.101000e+00	-7.329855e+01	-5.065446e+01	0	0
2295391	2.101000e+00	-9.161992e+01	-9.557138e+00	0	0
2297344	2.101000e+00	-8.525216e+01	2.212406e-01	0	0
2299297	2.101000e+00	-9.362759e+01	-7.842574e+00	0	0
2301250	2.101000e+00	-9.305125e+01	2.324315e+01	0	0
2303203	2.101000e+00	-8.291645e+01	9.433044e+01	0	0
2305156	2.101000e+00	-8.193656e+01	4.111485e+01	0	0
2307109	2.101000e+00	-7.033957e+01	2.663701e-01	0	0
2309063	2.101000e+00	-5.749310e+01	-1.742402e+01	0	0
2311016	2.101307e+00	-6.726242e+01	-8.933040e+01	0	0
2312969	2.102000e+00	-7.765201e+01	-8.196475e+01	0	0
2314922	2.102000e+00	-8.636884e+01	-3.092956e+01	0	0
2316875	2.102000e+00	-7.919146e+01	8.973869e+00	0	0
2318828	2.102000e+00	-7.334321e+01	-9.377192e-01	0	0
2320781	2.102000e+00	-7.658854e+01	1.241070e+01	0	0
2322734	2.102000e+00	-7.655469e+01	7.993904e+01	0	0
2324688	2.102000e+00	-7.501856e+01	7.325949e+01	0	0
2326641	2.102000e+00	-7.200552e+01	-1.227786e+01	0	0
2328594	2.102000e+00	-5.647555e+01	7.876074e+00	0	0
2330547	2.102000e+00	-5.298531e+01	-3.754154e+01	0	0
2332500	2.102000e+00	-6.113456e+01	-1.018792e+02	0	0
2334453	2.102000e+00	-6.600697e+01	-3.166104e+01	0	0
2336406	2.102000e+00	-5.579882e+01	1.573587e+00	0	0
2338359	2.102000e+00	-6.571229e+01	3.394960e-01	0	0
2340313	2.102308e+00	-6.483733e+01	-4.724870e+00	0	0
2342266	2.103000e+00	-5.274812e+01	4.022028e+01	0	0
2344219	2.103000e+00	-5.152870e+01	7.658567e+01	0	0
2346172	2.103000e+00	-4.539019e+01	-1.361980e+01	0	0
2348125	2.103000e+00	-4.382959e+01	1.220944e+01	0	0
2350078	2.103000e+00	-4.422727e+01	-2.350418e+01	0	0
2352031	2.103000e+00	-3.679745e+01	-9.149932e+01	0	0
2353984	2.103000e+00	-3.441378e+01	-3.487977e+01	0	0
2355938	2.103000e+00	-3.401397e+01	4.259492e+00	0	0
2357891	2.103000e+00	-3.001477e+01	4.879437e-01	0	0
2359844	2.103000e+00	-1.859038e+01	-6.083747e+00	0	0
2361797	2.103000e+00	-2.119353e+01	2.630910e+01	0	0
2363750	2.103000e+00	-1.985433e+01	7.961566e+01	0	0
2365703	2.103309e+00	-6.384029e+00	1.104825e+01	0	0
2367656	2.104000e+00	-8.686766e+00	5.148542e+00	0	0
2369609	2.104000e+00	-5.352154e-01	-2.452943e+01	0	0
2371563	2.104000e+00	5.099861e+00	-8.223784e+01	0	0
2373516	2.104000e+00	1.510414e+01	-3.844248e+01	0	0
2375469	2.104000e+00	1.564459e+01	-1.944862e+01	0	0
2377422	2.104000e+00	1.826241e+01	2.335925e+00	0	0
2379375	2.104000e+00	1.437128e+01	-8.449646e+00	0	0
2381328	2.104000e+00	1.805451e+01	2.009170e+01	0	0
2383281	2.104309e+00	2.717079e+01	8.794561e+01	0	0
2385234	2.105000e+00	3.773679e+01	4.077385e+01	0	0
2387188	2.105000e+00	4.555857e+01	-1.049624e-02	0	0
2389141	2.105000e+00	5.268872e+01	-2.210893e+01	0	0
2391094	2.105000e+00	4.707233e+01	-9.212098e+01	0	0
2393047	2.105000e+00	4.280411e+01	-7.078024e+01	0	0
2395000	2.105000e+00	4.115385e+01	-3.443482e+01	0	0
2396953	2.105000e+00	3.710035e+01	8.956052e+00	0	0
2398906	2.105000e+00	4.268030e+01	-1.847089e+00	0	0
2400859	2.105000e+00	4.730645e+01	1.561922e+01	0	0
2402813	2.105000e+00	5.631124e+01	8.427561e+01	0	0
2404766	2.105310e+00	6.347476e+01	6.920869e+01	0	0
2406719	2.106000e+00	8.414268e+01	-1.214172e+01	0	0
2408672	2.106000e+00	1.001007e+02	1.004438e+01	0	0
2410625	2.106000e+00	9.064467e+01	-3.154639e+01	0	0
2412578	2.106000e+00	9.654289e+01	-9.293942e+01	0	0
2414531	2.106000e+00	1.018620e+02	-1.936979e+01	0	0
2416484	2.106000e+00	1.132284e+02	-7.289565e-01	0	0
2418438	2.106000e+00	1.053644e+02	-1.183593e+00	0	0
2420391	2.106000e+00	9.615738e+01	2.386666e+00	0	0
2422344	2.106000e+00	1.030968e+02	5.479721e+01	0	0
2424297	2.106310e+00	1.112346e+02	7.122736e+01	0	0
2426250	2.107000e+00	1.317513e+02	-1.275351e+01	0	0
2428203	2.107000e+00	1.390328e+02	9.497365e+00	0	0
2430156	2.107000e+00	1.483116e+02	-2.439831e+01	0	0
2432109	2.107000e+00	1.606860e+02	-8.896443e+01	0	0
2434063	2.107000e+00	1.707906e+02	-3.258998e+01	0	0
2436016	2.107000e+00	1.761778e+02	5.304774e+00	0	0
2437969	2.107000e+00	1.703295e+02	1.413678e+00	0	0
2439922	2.107000e+00	1.897788e+02	-6.000024e+00	0	0
2441875	2.107000e+00	1.990843e+02	2.678100e+01	0	0
2443828	2.107311e+00	1.970409e+02	7.845842e+01	0	0
2445781	2.108000e+00	2.145444e+02	8.414652e+00	0	0
2447734	2.108000e+00	2.399605e+02	5.587622e+00	0	0
2449688	2.108000e+00	2.612416e+02	-2.485499e+01	0	0
2451641	2.108000e+00	2.745754e+02	-8.251548e+01	0	0
2453594	2.108000e+00	2.737943e+02	-3.580740e+01	0	0
2455547	2.108000e+00	2.773734e+02	-1.407020e+01	0	0
2457500	2.108311e+00	2.942720e+02	3.258784e+00	0	0
2459453	2.109000e+00	3.014453e+02	-5.776181e+00	0	0
2461406	2.109000e+00	3.155804e+02	2.212795e+01	0	0
2463359	2.109000e+00	3.308586e+02	9.048475e+01	0	0
2465313	2.109000e+00	3.472890e+02	4.437863e+01	0	0
2467266	2.109000e+00	3.598632e+02	-7.155424e-01	0	0
2469219	2.109000e+00	3.703748e+02	-2.158875e+01	0	0
2471172	2.109000e+00	3.761289e+02	-9.032695e+01	0	0
2473125	2.109000e+00	3.809730e+02	-6.082169e+01	0	0
2475078	2.109312e+00	3.861524e+02	-2.262666e+01	0	0
2477031	2.110000e+00	4.016457e+02	4.336298e+00	0	0
2478984	2.110000e+00	4.116208e+02	-6.185295e+00	0	0
2480938	2.110000e+00	4.182023e+02	2.311568e+01	0	0
2482891	2.110000e+00	4.328938e+02	1.047467e+02	0	0
2484844	2.110000e+00	4.601155e+02	6.521999e+01	0	0
2486797	2.110000e+00	4.759912e+02	-1.116839e+01	0	0
2488750	2.110000e+00	4.853755e+02	9.692969e+00	0	0
2490703	2.110000e+00	4.998126e+02	-3.053445e+01	0	0
2492656	2.110000e+00	5.003101e+02	-9.503261e+01	0	0
2494609	2.110312e+00	4.982304e+02	-2.448074e+01	0	0
2496563	2.111000e+00	5.111675e+02	2.417881e+00	0	0
2498516	2.111000e+00	5.094237e+02	3.934128e-02	0	0
2500469	2.111000e+00	5.107412e+02	-2.054825e+00	0	0
2502422	2.111000e+00	5.173790e+02	4.756461e+01	0	0
2504375	2.111000e+00	5.356357e+02	7.729457e+01	0	0
2506328	2.111000e+00	5.129813e+02	-1.400976e+01	0	0
2508281	2.111313e+00	5.167658e+02	9.994667e+00	0	0
2510234	2.112000e+00	5.258957e+02	-2.879764e+01	0	0
2512188	2.112000e+00	4.955208e+02	-9.467649e+01	0	0
2514141	2.112000e+00	4.671553e+02	-3.139148e+01	0	0
2516094	2.112000e+00	4.237144e+02	3.335581e+00	0	0
2518047	2.112000e+00	4.096400e+02	7.604372e-01	0	0
2520000	2.112000e+00	3.896778e+02	-6.377082e+00	0	0
2521953	2.112000e+00	3.592562e+02	2.732979e+01	0	0
2523906	2.112313e+00	3.222529e+02	7.814763e+01	0	0
2525859	2.113000e+00	2.926449e+02	7.179198e+00	0	0
2527813	2.113000e+00	2.677836e+02	5.408662e+00	0	0
2529766	2.113000e+00	2.425676e+02	-2.347898e+01	0	0
2531719	2.113000e+00	2.178840e+02	-8.877617e+01	0	0
2533672	2.113000e+00	1.945312e+02	-5.394531e+01	0	0
2535625	2.113000e+00	1.723631e+02	-1.549379e+01	0	0
2537578	2.113313e+00	1.419286e+02	4.499983e+00	0	0
2539531	2.114000e+00	1.096011e+02	-5.461818e+00	0	0
2541484	2.114000e+00	9.515089e+01	2.532202e+01	0	0
2543438	2.114000e+00	7.587085e+01	8.682841e+01	0	0
2545391	2.114000e+00	6.023827e+01	3.021223e+01	0	0
2547344	2.114000e+00	6.100957e+01	2.015960e+00	0	0
2549297	2.114000e+00	4.603300e+01	-2.386508e+01	0	0
2551250	2.114314e+00	1.332012e+01	-9.038141e+01	0	0
2553203	2.115000e+00	9.977767e+00	-5.678617e+01	0	0
2555156	2.115000e+00	3.007385e+00	-2.498737e+01	0	0
2557109	2.115000e+00	-1.270114e+01	4.954803e+00	0	0
2559063	2.115000e+00	-2.838095e+01	-6.841668e+00	0	0
2561016	2.115000e+00	-3.834867e+01	2.518466e+01	0	0
2562969	2.115314e+00	-3.537272e+01	1.045733e+02	0	0
2564922	2.116000e+00	-4.584724e+01	5.679346e+01	0	0
2566875	2.116000e+00	-5.358272e+01	-1.236923e+01	0	0
2568828	2.116000e+00	-5.043065e+01	7.619652e+00	0	0
2570781	2.116000e+00	-5.632384e+01	-3.181544e+01	0	0
2572734	2.116000e+00	-6.624946e+01	-9.539623e+01	0	0
2574688	2.116000e+00	-6.551559e+01	-2.438261e+01	0	0
2576641	2.116000e+00	-6.686822e+01	2.434615e+00	0	0
2578594	2.116315e+00	-6.677578e+01	-4.525108e-04	0	0
2580547	2.117000e+00	-7.014438e+01	-1.876680e+00	0	0
2582500	2.117000e+00	-7.207961e+01	4.885204e+01	0	0
2584453	2.117000e+00	-7.048652e+01	7.771510e+01	0	0
2586406	2.117000e+00	-6.084302e+01	-1.370314e+01	0	0
2588359	2.117000e+00	-6.153971e+01	1.003749e+01	0	0
2590313	2.117315e+00	-5.550002e+01	-3.124581e+01	0	0
2592266	2.118000e+00	-5.161042e+01	-9.361384e+01	0	0
2594219	2.118000e+00	-7.478796e+01	-2.849945e+01	0	0
2596172	2.118000e+00	-8.098309e+01	4.801136e+00	0	0
2598125	2.118000e+00	-9.250182e+01	2.057272e+00	0	0
2600078	2.118315e+00	-8.745035e+01	-6.489388e+00	0	0
2602031	2.119000e+00	-9.086223e+01	2.923349e+01	0	0
2603984	2.119000e+00	-8.178420e+01	7.279952e+01	0	0
2605938	2.119000e+00	-8.804767e+01	-6.759927e+00	0	0
2607891	2.119000e+00	-9.399579e+01	7.821730e+00	0	0
2609844	2.119000e+00	-8.581259e+01	-2.463689e+01	0	0
2611797	2.119000e+00	-9.564713e+01	-8.345987e+01	0	0
2613750	2.119000e+00	-9.165422e+01	-3.841298e+01	0	0
2615703	2.119316e+00	-7.956085e+01	-7.608464e+00	0	0
2617656	2.120000e+00	-9.282926e+01	2.196650e+00	0	0
2619609	2.120000e+00	-1.008848e+02	-5.703618e+00	0	0
2621563	2.120000e+00	-8.716967e+01	2.309852e+01	0	0
2623516	2.120000e+00	-9.189316e+01	8.193461e+01	0	0
2625469	2.120000e+00	-8.436750e+01	2.984068e+01	0	0
2627422	2.120316e+00	-7.802919e+01	1.341375e+00	0	0
2629375	2.121000e+00	-8.157523e+01	-2.140569e+01	0	0
2631328	2.121000e+00	-9.572992e+01	-8.715568e+01	0	0
2633281	2.121000e+00	-8.458415e+01	-5.479241e+01	0	0
2635234	2.121000e+00	-8.990654e+01	-1.412626e+01	0	0
2637188	2.121316e+00	-8.786680e+01	3.065432e+00	0	0
2639141	2.122000e+00	-9.295638e+01	-6.012070e+00	0	0
2641094	2.122000e+00	-9.757754e+01	2.370932e+01	0	0
2643047	2.122000e+00	-8.523611e+01	9.923268e+01	0	0
2645000	2.122000e+00	-8.701125e+01	5.482595e+01	0	0
2646953	2.122000e+00	-7.762794e+01	-7.810352e+00	0	0
2648906	2.122000e+00	-7.891649e+01	1.693405e+00	0	0
2650859	2.122316e+00	-7.668188e+01	-4.374617e+01	0	0
2652813	2.123000e+00	-7.074795e+01	-9.399325e+01	0	0
2654766	2.123000e+00	-7.517007e+01	-3.847162e+01	0	0
2656719	2.123000e+00	-7.076258e+01	4.938553e+00	0	0
2658672	2.123000e+00	-7.923897e+01	-7.905113e-01	0	0
2660625	2.123317e+00	-7.961142e+01	-1.189733e+00	0	0
2662578	2.124000e+00	-7.377388e+01	4.831696e+01	0	0
2664531	2.124000e+00	-6.285661e+01	7.495853e+01	0	0
2666484	2.124000e+00	-6.041239e+01	-1.291988e+01	0	0
2668438	2.124000e+00	-6.054302e+01	8.392501e+00	0	0
2670391	2.124000e+00	-6.357802e+01	-3.450566e+01	0	0
2672344	2.124317e+00	-7.672989e+01	-8.789230e+01	0	0
2674297	2.125000e+00	-7.822361e+01	-1.929490e+01	0	0
2676250	2.125000e+00	-7.633557e+01	1.850150e+00	0	0
2678203	2.125000e+00	-7.826653e+01	-3.363230e-01	0	0
2680156	2.125000e+00	-7.340417e+01	-1.324413e+00	0	0
2682109	2.125317e+00	-6.404836e+01	4.167113e+01	0	0
2684063	2.126000e+00	-6.018686e+01	7.723701e+01	0	0
2686016	2.126000e+00	-5.971308e+01	8.417289e+00	0	0
2687969	2.126000e+00	-6.297128e+01	5.570707e+00	0	0
2689922	2.126000e+00	-6.076716e+01	-2.523479e+01	0	0
2691875	2.126318e+00	-6.644835e+01	-8.566504e+01	0	0
2693828	2.127000e+00	-5.781132e+01	-3.639025e+01	0	0
2695781	2.127000e+00	-6.678888e+01	-6.689769e+00	0	0
2697734	2.127000e+00	-7.286574e+01	2.296325e+00	0	0
2699688	2.127000e+00	-6.772745e+01	-6.517900e+00	0	0
2701641	2.127000e+00	-7.125805e+01	2.642593e+01	0	0
2703594	2.127318e+00	-6.103473e+01	8.014698e+01	0	0
2705547	2.128000e+00	-5.396501e+01	1.582411e+01	0	0
2707500	2.128000e+00	-5.371040e+01	3.977514e+00	0	0
2709453	2.128000e+00	-4.506302e+01	-2.339068e+01	0	0
2711406	2.128000e+00	-4.276466e+01	-9.275459e+01	0	0
2713359	2.128318e+00	-4.935389e+01	-6.552164e+01	0	0
2715313	2.129000e+00	-3.654455e+01	-2.307762e+01	0	0
2717266	2.129000e+00	-4.746254e+01	4.557168e+00	0	0
2719219	2.129000e+00	-5.966434e+01	-6.817779e+00	0	0
2721172	2.129000e+00	-5.760343e+01	2.559362e+01	0	0
2723125	2.129319e+00	-6.183764e+01	9.966423e+01	0	0
2725078	2.130000e+00	-6.574334e+01	4.876512e+01	0	0
2727031	2.130000e+00	-6.621412e+01	-5.104627e+00	0	0
2728984	2.130000e+00	-4.667321e+01	-5.470973e+00	0	0
2730938	2.130319e+00	-5.138202e+01	-6.196152e+01	0	0
2732891	2.130681e+00	-5.020059e+01	-9.338880e+01	0	0
2734844	2.130319e+00	-5.598483e+01	-3.732136e+01	0	0
2736797	2.131000e+00	-6.347515e+01	5.498378e+00	0	0
2738750	2.131000e+00	-8.380210e+01	-7.140884e-01	0	0
2740703	2.131000e+00	-1.005498e+02	-5.186148e-01	0	0
2742656	2.131319e+00	-8.191893e+01	5.425094e+01	0	0
2744609	2.132000e+00	-8.263689e+01	8.200924e+01	0	0
2746563	2.132000e+00	-6.364218e+01	-1.364297e+01	0	0
2748516	2.132000e+00	-4.536028e+01	1.095440e+01	0	0
2750469	2.132000e+00	-6.023690e+01	-3.282688e+01	0	0
2752422	2.132319e+00	-6.459458e+01	-9.311861e+01	0	0
2754375	2.133000e+00	-7.812876e+01	-1.895367e+01	0	0
2756328	2.133000e+00	-8.275424e+01	-2.931670e+00	0	0
2758281	2.133000e+00	-7.659447e+01	-6.402954e+00	0	0
2760234	2.133319e+00	-8.554447e+01	-4.538198e+00	0	0
2762188	2.134000e+00	-8.442514e+01	4.460045e+01	0	0
2764141	2.134000e+00	-7.977677e+01	7.163403e+01	0	0
2766094	2.134000e+00	-7.450374e+01	-3.083730e+00	0	0
2768047	2.134000e+00	-7.184362e+01	3.449737e+00	0	0
2770000	2.134320e+00	-6.345767e+01	-2.871111e+01	0	0
2771953	2.135000e+00	-6.285861e+01	-8.779538e+01	0	0
2773906	2.135000e+00	-7.304934e+01	-4.219507e+01	0	0
2775859	2.135000e+00	-7.953947e+01	-1.450846e+01	0	0
2777813	2.135000e+00	-1.001032e+02	4.760239e+00	0	0
2779766	2.135320e+00	-9.836221e+01	-6.890655e+00	0	0
2781719	2.136000e+00	-9.013457e+01	2.797314e+01	0	0
2783672	2.136000e+00	-8.595032e+01	7.935461e+01	0	0
2785625	2.136000e+00	-8.793053e+01	9.660992e+00	0	0
2787578	2.136000e+00	-7.369808e+01	5.096065e+00	0	0
2789531	2.136320e+00	-5.906345e+01	-2.486293e+01	0	0
2791484	2.137000e+00	-8.188378e+01	-9.284359e+01	0	0
2793438	2.137000e+00	-9.106495e+01	-5.397038e+01	0	0
2795391	2.137000e+00	-8.798613e+01	-1.121449e+01	0	0
2797344	2.137321e+00	-8.107985e+01	4.253516e+00	0	0
2799297	2.138000e+00	-8.466256e+01	-4.658452e+00	0	0
2801250	2.138000e+00	-8.487430e+01	2.678705e+01	0	0
2803203	2.138000e+00	-7.168517e+01	9.754726e+01	0	0
2805156	2.138000e+00	-6.605653e+01	4.860156e+01	0	0
2807109	2.138321e+00	-7.073991e+01	2.364565e+00	0	0
2809063	2.139000e+00	-6.972662e+01	-7.514675e+00	0	0
2811016	2.139000e+00	-7.624848e+01	-6.609644e+01	0	0
2812969	2.139000e+00	-7.722782e+01	-8.943321e+01	0	0
2814922	2.139321e+00	-7.463484e+01	-4.949564e+01	0	0
2816875	2.140000e+00	-9.156737e+01	1.350566e+01	0	0
2818828	2.140000e+00	-9.203466e+01	3.219196e+00	0	0
2820781	2.140000e+00	-8.222674e+01	7.481018e+00	0	0
2822734	2.140000e+00	-7.158461e+01	5.911457e+01	0	0
2824688	2.140322e+00	-7.295325e+01	7.318491e+01	0	0
2826641	2.141000e+00	-8.328879e+01	-1.392526e+01	0	0
2828594	2.141000e+00	-6.570000e+01	9.764933e+00	0	0
2830547	2.141000e+00	-7.457221e+01	-3.543160e+01	0	0
2832500	2.141321e+00	-7.850886e+01	-9.073581e+01	0	0
2834453	2.142000e+00	-7.959848e+01	-1.794393e+01	0	0
2836406	2.142000e+00	-9.008817e+01	-1.285910e+01	0	0
2838359	2.142321e+00	-9.311766e+01	-1.440914e+01	0	0
2840313	2.143000e+00	-8.423975e+01	-4.312750e+00	0	0
2842266	2.143000e+00	-7.180093e+01	5.110682e+01	0	0
2844219	2.143000e+00	-7.118135e+01	6.550402e+01	0	0
2846172	2.143000e+00	-5.344663e+01	1.297479e-01	0	0
2848125	2.143322e+00	-4.303831e+01	9.597340e-01	0	0
2850078	2.144000e+00	-4.239121e+01	-2.789040e+01	0	0
2852031	2.144000e+00	-2.686633e+01	-8.154258e+01	0	0
2853984	2.144000e+00	-1.645144e+00	-3.246476e+01	0	0
2855938	2.144322e+00	3.401606e+01	-5.528707e+00	0	0
2857891	2.145000e+00	4.257176e+01	7.459135e+00	0	0
2859844	2.145000e+00	4.487159e+01	-2.353613e+00	0	0
2861797	2.145000e+00	5.558436e+01	3.171978e+01	0	0
2863750	2.145000e+00	6.024203e+01	7.188032e+01	0	0
2865703	2.145322e+00	6.169215e+01	-7.549886e-01	0	0
2867656	2.146000e+00	7.203182e+01	6.291161e+00	0	0
2869609	2.146000e+00	9.311532e+01	-2.179080e+01	0	0
2871563	2.146000e+00	8.547937e+01	-8.683400e+01	0	0
2873516	2.146323e+00	8.168624e+01	-6.384451e+01	0	0
2875469	2.147000e+00	7.607485e+01	-1.559078e+01	0	0
2877422	2.147000e+00	8.818380e+01	7.724987e+00	0	0
2879375	2.147000e+00	9.500543e+01	-1.178423e+00	0	0
2881328	2.147323e+00	9.541823e+01	2.805854e+01	0	0
2883281	2.148000e+00	1.091769e+02	1.004597e+02	0	0
2885234	2.148000e+00	1.091197e+02	5.708636e+01	0	0
2887188	2.148000e+00	1.325117e+02	-2.135291e+00	0	0
2889141	2.148323e+00	1.524125e+02	-1.347068e+00	0	0
2891094	2.149000e+00	1.574068e+02	-5.750249e+01	0	0
2893047	2.149000e+00	1.663774e+02	-8.507201e+01	0	0
2895000	2.149000e+00	1.703205e+02	-3.441571e+01	0	0
2896953	2.149323e+00	1.584332e+02	5.223802e+00	0	0
2898906	2.150000e+00	1.404719e+02	6.711819e-01	0	0
2900859	2.150000e+00	1.443209e+02	8.788544e+00	0	0
2902813	2.150000e+00	1.372607e+02	6.780911e+01	0	0
2904766	2.150324e+00	1.347685e+02	7.596883e+01	0	0
2906719	2.151000e+00	1.333973e+02	-1.560106e+01	0	0
2908672	2.151000e+00	1.344794e+02	7.478038e+00	0	0
2910625	2.151000e+00	1.348134e+02	-3.762291e+01	0	0
2912578	2.151324e+00	1.178982e+02	-9.108010e+01	0	0
2914531	2.152000e+00	9.632445e+01	-1.659653e+01	0	0
2916484	2.152000e+00	6.897852e+01	-1.215757e+01	0	0
2918438	2.152000e+00	4.625564e+01	-1.302515e+01	0	0
2920391	2.152324e+00	2.774504e+01	-4.570979e+00	0	0
2922344	2.153000e+00	1.994405e+01	5.264658e+01	0	0
2924297	2.153000e+00	9.289978e+00	6.660817e+01	0	0
2926250	2.153000e+00	9.475504e+00	-5.362258e+00	0	0
2928203	2.153324e+00	2.808634e+00	7.740208e+00	0	0
2930156	2.154000e+00	-3.655700e+01	-2.210103e+01	0	0
2932109	2.154000e+00	-4.349796e+01	-8.620322e+01	0	0
2934063	2.154324e+00	-5.753079e+01	-4.150568e+01	0	0
2936016	2.155000e+00	-6.705327e+01	5.154431e+00	0	0
2937969	2.155000e+00	-7.492256e+01	8.797733e+00	0	0
2939922	2.155000e+00	-9.648287e+01	-3.244376e-01	0	0
2941875	2.155000e+00	-9.641152e+01	3.413629e+01	0	0
2943828	2.155324e+00	-9.133672e+01	7.917948e+01	0	0
2945781	2.156000e+00	-1.017762e+02	5.002592e+00	0	0
2947734	2.156000e+00	-9.339498e+01	9.260609e+00	0	0
2949688	2.156325e+00	-8.123531e+01	-2.308988e+01	0	0
2951641	2.157000e+00	-9.455293e+01	-8.182554e+01	0	0
2953594	2.157000e+00	-9.587272e+01	-3.607924e+01	0	0
2955547	2.157000e+00	-9.819326e+01	-1.057048e+01	0	0
2957500	2.157325e+00	-1.014969e+02	9.299831e-01	0	0
2959453	2.158000e+00	-1.120578e+02	-7.915153e+00	0	0
2961406	2.158000e+00	-1.197536e+02	1.986204e+01	0	0
2963359	2.158000e+00	-1.090911e+02	9.267427e+01	0	0
2965313	2.158000e+00	-1.109453e+02	5.248754e+01	0	0
2967266	2.158325e+00	-1.194928e+02	-2.332980e+00	0	0
2969219	2.159000e+00	-1.096817e+02	-1.941850e+01	0	0
2971172	2.159000e+00	-1.052551e+02	-8.421171e+01	0	0
2973125	2.159325e+00	-1.098456e+02	-7.320961e+01	0	0
2975078	2.160000e+00	-1.281956e+02	-3.328568e+01	0	0
2977031	2.160000e+00	-1.259738e+02	1.232304e+01	0	0
2978984	2.160325e+00	-1.284588e+02	7.934177e-01	0	0
2980938	2.161000e+00	-1.378657e+02	1.046561e+01	0	0
2982891	2.161000e+00	-1.358290e+02	6.854380e+01	0	0
2984844	2.161000e+00	-1.253429e+02	6.570157e+01	0	0
2986797	2.161326e+00	-1.198359e+02	-1.334369e+01	0	0
2988750	2.162000e+00	-1.088557e+02	5.473694e+00	0	0
2990703	2.162000e+00	-1.120852e+02	-3.891203e+01	0	0
2992656	2.162000e+00	-1.220613e+02	-9.177484e+01	0	0
2994609	2.162326e+00	-1.264331e+02	-1.830332e+01	0	0
2996563	2.163000e+00	-1.220186e+02	-2.771190e+00	0	0
2998516	2.163000e+00	-1.254341e+02	7.345185e-01	0	0
3000469	2.163000e+00	-1.319049e+02	-4.026627e+00	0	0
3002422	2.163326e+00	-1.242084e+02	4.117825e+01	0	0
3004375	2.164000e+00	-1.187067e+02	7.073936e+01	0	0
3006328	2.164000e+00	-1.276916e+02	-1.233543e+01	0	0
3008281	2.164000e+00	-1.629369e+02	1.370612e+01	0	0
3010234	2.164326e+00	-1.816510e+02	-2.122409e+01	0	0
3012188	2.165000e+00	-1.937083e+02	-8.709192e+01	0	0
3014141	2.165000e+00	-1.735865e+02	-4.971853e+01	0	0
3016094	2.165327e+00	-1.304130e+02	-1.143756e+01	0	0
3018047	2.166000e+00	-6.055996e+01	9.030240e+00	0	0
3020000	2.166000e+00	2.528557e+01	-2.920428e+00	0	0
3021953	2.166000e+00	1.181282e+02	3.222795e+01	0	0
3023906	2.166327e+00	2.417900e+02	7.885474e+01	0	0
3025859	2.167000e+00	4.422769e+02	7.684652e+00	0	0
3027813	2.167000e+00	7.275788e+02	5.611295e+00	0	0
3029766	2.167327e+00	9.848348e+02	-2.506757e+01	0	0
3031719	2.168000e+00	1.222405e+03	-8.203115e+01	0	0
3033672	2.168000e+00	1.517268e+03	-4.315713e+01	0	0
3035625	2.168000e+00	1.774705e+03	-1.768159e+01	0	0
3037578	2.168327e+00	1.943623e+03	2.773415e+00	0	0
3039531	2.169000e+00	1.963208e+03	-8.255109e+00	0	0
3041484	2.169000e+00	1.852658e+03	2.017357e+01	0	0
3043438	2.169327e+00	1.582788e+03	8.499573e+01	0	0
3045391	2.170000e+00	1.238379e+03	4.168555e+01	0	0
3047344	2.170000e+00	1.023148e+03	-2.314645e+00	0	0
3049297	2.170000e+00	8.272410e+02	-1.460820e+01	0	0
3051250	2.170327e+00	6.208272e+02	-7.365682e+01	0	0
3053203	2.171000e+00	2.607601e+02	-6.964329e+01	0	0
3055156	2.171000e+00	-8.780472e+01	-2.525792e+01	0	0
3057109	2.171327e+00	-2.197119e+02	5.328510e+00	0	0
3059063	2.172000e+00	-2.513106e+02	-4.900461e+00	0	0
3061016	2.172000e+00	-2.262153e+02	1.720882e+01	0	0
3062969	2.172000e+00	-1.848757e+02	8.435579e+01	0	0
3064922	2.172328e+00	-1.574286e+02	5.966193e+01	0	0
3066875	2.173000e+00	-1.049373e+02	-1.074901e+01	0	0
3068828	2.173000e+00	-4.835374e+01	8.956785e+00	0	0
3070781	2.173000e+00	-3.933516e+01	-2.924057e+01	0	0
3072734	2.173328e+00	-9.375780e+00	-8.840509e+01	0	0
3074688	2.174000e+00	-5.841774e+00	-2.691930e+01	0	0
3076641	2.174000e+00	-2.821723e+01	2.775065e+00	0	0
3078594	2.174328e+00	-4.552369e+01	1.215171e+00	0	0
3080547	2.175000e+00	-4.294997e+01	-7.635489e+00	0	0
3082500	2.175000e+00	-4.344175e+01	3.243090e+01	0	0
3084453	2.175000e+00	-4.426600e+01	7.120976e+01	0	0
3086406	2.175328e+00	-3.940378e+01	-1.356166e+01	0	0
3088359	2.176000e+00	-3.722350e+01	9.647685e+00	0	0
3090313	2.176000e+00	-4.512250e+01	-2.815626e+01	0	0
3092266	2.176329e+00	-5.007485e+01	-9.090797e+01	0	0
3094219	2.177000e+00	-5.375989e+01	-4.239957e+01	0	0
3096172	2.177000e+00	-5.661719e+01	-7.789035e+00	0	0
3098125	2.177329e+00	-5.389903e+01	2.562157e+00	0	0
3100078	2.178000e+00	-5.889598e+01	-7.075446e+00	0	0
3102031	2.178000e+00	-6.074766e+01	2.878484e+01	0	0
3103984	2.178329e+00	-5.737751e+01	8.220890e+01	0	0
3105938	2.179000e+00	-4.644597e+01	1.401255e+01	0	0
3107891	2.179000e+00	-3.548012e+01	5.210563e+00	0	0
3109844	2.179000e+00	-2.438016e+01	-2.704089e+01	0	0
3111797	2.179329e+00	-3.200372e+01	-8.580808e+01	0	0
3113750	2.180000e+00	-3.334390e+01	-4.069296e+01	0	0
3115703	2.180000e+00	-3.250183e+01	-1.771541e+01	0	0
3117656	2.180000e+00	-2.974870e+01	5.797898e+00	0	0
3119609	2.180329e+00	-3.558010e+01	-5.678549e+00	0	0
3121563	2.181000e+00	-4.061609e+01	2.899432e+01	0	0
3123516	2.181000e+00	-2.696331e+01	9.329648e+01	0	0
3125469	2.181330e+00	-1.715856e+01	3.474827e+01	0	0
3127422	2.182000e+00	-1.762952e+00	5.116938e-01	0	0
3129375	2.182000e+00	5.880287e+00	-1.568637e+01	0	0
3131328	2.182330e+00	9.708362e+00	-8.299408e+01	0	0
3133281	2.183000e+00	-8.333410e+00	-8.138678e+01	0	0
3135234	2.183000e+00	-1.497738e+01	-2.759011e+01	0	0
3137188	2.183000e+00	-8.772161e-01	4.113221e+00	0	0
3139141	2.183330e+00	-1.544453e+00	-2.836319e+00	0	0
3141094	2.184000e+00	-1.014079e+01	8.894574e+00	0	0
3143047	2.184000e+00	2.129912e+00	7.292989e+01	0	0
3145000	2.184330e+00	1.385635e+01	7.161288e+01	0	0
3146953	2.185000e+00	2.388502e+01	-1.332501e+01	0	0
3148906	2.185000e+00	3.470172e+01	1.060990e+01	0	0
3150859	2.185000e+00	2.748028e+01	-3.260620e+01	0	0
3152813	2.185330e+00	2.637353e+01	-9.700417e+01	0	0
3154766	2.186000e+00	1.678985e+01	-2.836861e+01	0	0
3156719	2.186000e+00	2.292495e+01	7.276355e-01	0	0
3158672	2.186330e+00	1.825207e+01	-2.095080e+00	0	0
3160625	2.187000e+00	1.129761e+01	-7.997271e+00	0	0
3162578	2.187000e+00	2.076840e+01	3.862131e+01	0	0
3164531	2.187330e+00	3.111155e+01	7.090236e+01	0	0
3166484	2.188000e+00	2.795592e+01	-1.796459e+01	0	0
3168438	2.188000e+00	3.813244e+01	6.766616e+00	0	0
3170391	2.188000e+00	4.653235e+01	-3.406722e+01	0	0
3172344	2.188331e+00	4.981631e+01	-8.906165e+01	0	0
3174297	2.189000e+00	5.126795e+01	-2.880147e+01	0	0
3176250	2.189331e+00	3.806956e+01	-9.144994e+00	0	0
3178203	2.190000e+00	3.550761e+01	1.638277e+00	0	0
3180156	2.190000e+00	4.634649e+01	-7.177965e+00	0	0
3182109	2.190000e+00	5.372207e+01	2.828081e+01	0	0
3184063	2.190331e+00	6.883809e+01	7.738538e+01	0	0
3186016	2.191000e+00	9.150191e+01	1.105466e+01	0	0
3187969	2.191000e+00	9.004344e+01	4.844184e+00	0	0
3189922	2.191331e+00	9.255244e+01	-2.357864e+01	0	0
3191875	2.192000e+00	9.564456e+01	-9.234681e+01	0	0
3193828	2.192000e+00	8.115168e+01	-5.927660e+01	0	0
3195781	2.192331e+00	8.272944e+01	-9.659199e+00	0	0
3197734	2.193000e+00	9.562122e+01	5.309395e+00	0	0
3199688	2.193000e+00	1.008735e+02	-3.821304e+00	0	0
3201641	2.193332e+00	9.291286e+01	3.220409e+01	0	0
3203594	2.194000e+00	1.057731e+02	8.637972e+01	0	0
3205547	2.194000e+00	1.259982e+02	2.099847e+01	0	0
3207500	2.194332e+00	1.303306e+02	9.110344e+00	0	0
3209453	2.195000e+00	1.440502e+02	-2.234895e+01	0	0
3211406	2.195000e+00	1.377329e+02	-9.190483e+01	0	0
3213359	2.195000e+00	1.338451e+02	-7.311390e+01	0	0
3215313	2.195332e+00	1.462950e+02	-3.959653e+01	0	0
3217266	2.196000e+00	1.503329e+02	7.775874e+00	0	0
3219219	2.196000e+00	1.526109e+02	-4.498118e+00	0	0
3221172	2.196332e+00	1.633233e+02	1.427349e+01	0	0
3223125	2.197000e+00	1.677911e+02	8.199807e+01	0	0
3225078	2.197000e+00	1.746333e+02	6.729805e+01	0	0
3227031	2.197332e+00	1.837075e+02	-1.095434e+01	0	0
3228984	2.198000e+00	1.951815e+02	5.574676e+00	0	0
3230938	2.198000e+00	2.009393e+02	-4.141842e+01	0	0
3232891	2.198333e+00	2.192794e+02	-9.438188e+01	0	0
3234844	2.199000e+00	2.313483e+02	-3.293346e+01	0	0
3236797	2.199000e+00	2.295717e+02	1.249325e+00	0	0
3238750	2.199332e+00	2.376169e+02	-5.279884e+00	0	0
3240703	2.200000e+00	2.389823e+02	1.674199e+00	0	0
3242656	2.200000e+00	2.626725e+02	5.808853e+01	0	0
3244609	2.200000e+00	2.890862e+02	6.643615e+01	0	0
3246563	2.200333e+00	2.911030e+02	-1.342930e+01	0	0
3248516	2.201000e+00	3.195708e+02	8.678328e+00	0	0
3250469	2.201000e+00	3.277629e+02	-3.038736e+01	0	0
3252422	2.201333e+00	3.481859e+02	-8.381694e+01	0	0
3254375	2.202000e+00	3.811634e+02	-1.846240e+01	0	0
3256328	2.202000e+00	3.779622e+02	1.874190e+00	0	0
3258281	2.202333e+00	3.710270e+02	1.698567e+00	0	0
3260234	2.203000e+00	3.775446e+02	-6.552012e+00	0	0
3262188	2.203000e+00	3.945310e+02	2.974679e+01	0	0
3264141	2.203333e+00	4.122058e+02	7.445346e+01	0	0
3266094	2.204000e+00	4.413556e+02	3.345299e+00	0	0
3268047	2.204000e+00	4.587539e+02	6.556528e+00	0	0
3270000	2.204333e+00	4.645587e+02	-2.200440e+01	0	0
3271953	2.205000e+00	4.634557e+02	-8.974616e+01	0	0
3273906	2.205333e+00	4.716154e+02	-6.158257e+01	0	0
3275859	2.206000e+00	4.896957e+02	-1.169917e+01	0	0
3277813	2.206000e+00	5.089045e+02	6.924600e+00	0	0
3279766	2.206000e+00	5.325627e+02	-2.760325e+00	0	0
3281719	2.206334e+00	5.431944e+02	2.837949e+01	0	0
3283672	2.207000e+00	5.503933e+02	9.295629e+01	0	0
3285625	2.207000e+00	5.634876e+02	4.096530e+01	0	0
3287578	2.207334e+00	5.760949e+02	2.133351e+00	0	0
3289531	2.208000e+00	5.821590e+02	-2.435170e+01	0	0
3291484	2.208000e+00	5.846887e+02	-9.238080e+01	0	0
3293438	2.208334e+00	5.946946e+02	-6.313839e+01	0	0
3295391	2.209000e+00	5.783246e+02	-2.727759e+01	0	0
3297344	2.209000e+00	5.692487e+02	5.510991e+00	0	0
3299297	2.209334e+00	5.860640e+02	-5.049753e+00	0	0
3301250	2.210000e+00	5.821048e+02	1.976661e+01	0	0
3303203	2.210000e+00	5.638470e+02	9.460583e+01	0	0
3305156	2.210334e+00	5.568958e+02	6.610864e+01	0	0
3307109	2.211000e+00	5.457414e+02	-1.430769e+01	0	0
3309063	2.211000e+00	5.366961e+02	8.065548e+00	0	0
3311016	2.211335e+00	5.077957e+02	-3.765379e+01	0	0
3312969	2.212000e+00	4.702350e+02	-9.334470e+01	0	0
3314922	2.212000e+00	4.433685e+02	-1.710697e+01	0	0
3316875	2.212335e+00	4.110925e+02	-1.446070e+00	0	0
3318828	2.213000e+00	3.797076e+02	-1.298024e+00	0	0
3320781	2.213000e+00	3.548189e+02	-4.587972e-01	0	0
3322734	2.213335e+00	3.353316e+02	5.251359e+01	0	0
3324688	2.214000e+00	3.093059e+02	7.206964e+01	0	0
3326641	2.214000e+00	2.878798e+02	-1.341861e+01	0	0
3328594	2.214335e+00	2.701632e+02	1.030383e+01	0	0
3330547	2.215000e+00	2.309064e+02	-2.980639e+01	0	0
3332500	2.215000e+00	2.034999e+02	-8.663021e+01	0	0
3334453	2.215335e+00	1.814513e+02	-2.607337e+01	0	0
3336406	2.216000e+00	1.521016e+02	1.010000e+00	0	0
3338359	2.216000e+00	1.310612e+02	5.001751e+00	0	0
3340313	2.216336e+00	1.154228e+02	-3.190720e+00	0	0
3342266	2.217000e+00	1.086261e+02	3.317259e+01	0	0
3344219	2.217000e+00	9.925521e+01	7.253014e+01	0	0
3346172	2.217335e+00	8.484226e+01	1.475320e+00	0	0
3348125	2.218000e+00	7.163427e+01	1.076421e+01	0	0
3350078	2.218000e+00	5.890429e+01	-2.037911e+01	0	0
3352031	2.218335e+00	4.329524e+01	-8.613353e+01	0	0
3353984	2.219000e+00	3.645395e+01	-5.616408e+01	0	0
3355938	2.219000e+00	3.116160e+01	-1.071304e+01	0	0
3357891	2.219336e+00	2.673823e+01	3.008219e+00	0	0
3359844	2.220000e+00	1.928648e+01	-5.862337e+00	0	0
3361797	2.220000e+00	1.386072e+01	2.543610e+01	0	0
3363750	2.220336e+00	8.112347e+00	8.780009e+01	0	0
3365703	2.221000e+00	1.118756e+01	3.549469e+01	0	0
3367656	2.221000e+00	1.956919e+01	1.795756e+00	0	0
3369609	2.221336e+00	1.546293e+01	-2.651500e+01	0	0
3371563	2.222000e+00	2.523973e-01	-8.505046e+01	0	0
3373516	2.222000e+00	-1.030566e+01	-4.342885e+01	0	0
3375469	2.222336e+00	-1.487742e+01	-2.341619e+01	0	0
3377422	2.223000e+00	-1.736207e+01	2.481979e+00	0	0
3379375	2.223000e+00	-1.352766e+01	-9.117073e+00	0	0
3381328	2.223336e+00	-9.177853e+00	2.134452e+01	0	0
3383281	2.224000e+00	-1.915679e+00	1.008118e+02	0	0
3385234	2.224000e+00	7.381880e+00	6.105210e+01	0	0
3387188	2.224337e+00	2.158690e-01	-1.332033e+01	0	0
3389141	2.225000e+00	-6.911932e+00	7.571594e+00	0	0
3391094	2.225000e+00	-1.459080e+00	-3.552845e+01	0	0
3393047	2.225337e+00	-2.292252e+00	-9.125146e+01	0	0
3395000	2.226000e+00	-9.989953e+00	-2.324583e+01	0	0
3396953	2.226000e+00	-7.254499e+00	3.041436e+00	0	0
3398906	2.226337e+00	-2.709580e+01	-1.121171e+00	0	0
3400859	2.227000e+00	-4.159568e+01	3.440274e+00	0	0
3402813	2.227000e+00	-2.700479e+01	5.704729e+01	0	0
3404766	2.227337e+00	-2.201056e+01	6.639461e+01	0	0
3406719	2.228000e+00	-4.990155e+00	-1.159928e+01	0	0
3408672	2.228000e+00	-2.831221e+00	5.850914e+00	0	0
3410625	2.228337e+00	-1.356829e+00	-3.413632e+01	0	0
3412578	2.229000e+00	-4.667423e+00	-8.759638e+01	0	0
3414531	2.229000e+00	-1.360024e+01	-3.584756e+01	0	0
3416484	2.229337e+00	-6.735049e+00	5.260135e+00	0	0
3418438	2.230000e+00	-1.657744e+01	1.057179e+00	0	0
3420391	2.230338e+00	-1.975020e+01	-5.971611e+00	0	0
3422344	2.231000e+00	-3.268240e+01	2.897194e+01	0	0
3424297	2.231000e+00	-2.864558e+01	7.307275e+01	0	0
3426250	2.231000e+00	-2.208747e+01	5.125463e+00	0	0
3428203	2.231338e+00	-2.191778e+01	5.997369e+00	0	0
3430156	2.232000e+00	-1.096274e+01	-2.569093e+01	0	0
3432109	2.232000e+00	-1.396671e+01	-8.455265e+01	0	0
3434063	2.232338e+00	-2.254510e+01	-4.568002e+01	0	0
3436016	2.233000e+00	-3.786027e+01	-1.367191e+01	0	0
3437969	2.233000e+00	-3.017301e+01	3.394079e+00	0	0
3439922	2.233338e+00	-4.271789e+01	-6.621228e+00	0	0
3441875	2.234000e+00	-3.422110e+01	2.619265e+01	0	0
3443828	2.234000e+00	-2.138588e+01	8.351745e+01	0	0
3445781	2.234338e+00	-1.207758e+01	2.758377e+01	0	0
3447734	2.235000e+00	2.683595e-01	1.979158e+00	0	0
3449688	2.235000e+00	-5.212185e+00	-2.411267e+01	0	0
3451641	2.235338e+00	-1.139684e+01	-9.238175e+01	0	0
3453594	2.236000e+00	-2.605185e+01	-7.192670e+01	0	0
3455547	2.236000e+00	-1.936159e+01	-3.038965e+01	0	0
3457500	2.236338e+00	-9.785300e+00	6.041417e+00	0	0
3459453	2.237000e+00	-8.963751e+00	-7.609473e+00	0	0
3461406	2.237000e+00	-2.739411e+01	2.786730e+01	0	0
3463359	2.237338e+00	-2.460407e+01	9.992155e+01	0	0
3465313	2.238000e+00	-1.167055e+01	4.774830e+01	0	0
3467266	2.238000e+00	-2.095894e+00	-8.013343e+00	0	0
3469219	2.238339e+00	-2.029578e+00	3.478624e+00	0	0
3471172	2.239000e+00	-3.739716e+00	-4.147495e+01	0	0
3473125	2.239000e+00	-1.467623e+01	-9.703958e+01	0	0
3475078	2.239339e+00	-1.497282e+01	-3.595515e+01	0	0
3477031	2.240000e+00	-1.460822e+01	4.389946e+00	0	0
3478984	2.240000e+00	-1.725309e+01	7.680510e-01	0	0
3480938	2.240339e+00	-1.303121e+01	-7.337275e+00	0	0
3482891	2.241000e+00	-3.461197e+00	4.022378e+01	0	0
3484844	2.241000e+00	7.001652e+00	7.861059e+01	0	0
3486797	2.241339e+00	9.195281e+00	-1.296835e+01	0	0
3488750	2.242000e+00	1.677757e+01	1.146281e+01	0	0
3490703	2.242000e+00	8.201307e+00	-3.361269e+01	0	0
3492656	2.242339e+00	6.427534e+00	-9.468491e+01	0	0
3494609	2.243000e+00	-3.885170e+00	-2.737648e+01	0	0
3496563	2.243000e+00	-6.517167e+00	3.165540e+00	0	0
3498516	2.243340e+00	-7.527572e+00	8.450651e-02	0	0
3500469	2.244000e+00	-4.610361e+00	-4.161908e+00	0	0
3502422	2.244000e+00	-9.624989e+00	3.724488e+01	0	0
3504375	2.244340e+00	-6.217936e+00	8.066469e+01	0	0
3506328	2.245000e+00	2.328571e+00	1.148329e+01	0	0
3508281	2.245000e+00	7.436997e+00	5.229011e+00	0	0
3510234	2.245340e+00	1.177916e+01	-2.809577e+01	0	0
3512188	2.246000e+00	-5.092889e+00	-8.507942e+01	0	0
3514141	2.246000e+00	-2.421125e+01	-3.451232e+01	0	0
3516094	2.246340e+00	-7.116332e+00	-9.946615e+00	0	0
3518047	2.247000e+00	-6.037195e+00	3.090211e+00	0	0
3520000	2.247000e+00	-1.228514e+01	-7.182212e+00	0	0
3521953	2.247000e+00	-7.721176e+00	2.881074e+01	0	0
3523906	2.247340e+00	-4.268167e+00	7.433133e+01	0	0
3525859	2.248000e+00	3.145741e+00	7.895055e+00	0	0
3527813	2.248000e+00	-9.343739e-03	5.463513e+00	0	0
3529766	2.248341e+00	2.001525e+01	-2.550888e+01	0	0
3531719	2.249000e+00	1.226094e+01	-8.633250e+01	0	0
3533672	2.249341e+00	-6.138412e+00	-5.422694e+01	0	0
3535625	2.250000e+00	-9.639859e+00	-1.982060e+01	0	0
3537578	2.250000e+00	-9.090276e+00	4.258229e+00	0	0
3539531	2.250341e+00	-1.595005e+01	-6.443306e+00	0	0
3541484	2.251000e+00	-1.765788e+01	2.473469e+01	0	0
3543438	2.251000e+00	-9.084781e+00	9.405000e+01	0	0
3545391	2.251000e+00	-4.976659e+00	4.867105e+01	0	0
3547344	2.251341e+00	6.220900e+00	-6.207369e+00	0	0
3549297	2.252000e+00	1.070267e+01	-3.380969e+00	0	0
3551250	2.252000e+00	1.246416e+01	-5.286604e+01	0	0
3553203	2.252341e+00	8.067354e+00	-8.476371e+01	0	0
3555156	2.253000e+00	-5.540857e+00	-3.333789e+01	0	0
3557109	2.253000e+00	-9.618558e+00	4.741322e+00	0	0
3559063	2.253341e+00	-1.828273e+01	-1.433567e+00	0	0
3561016	2.254000e+00	-2.157075e+01	2.018772e+00	0	0
3562969	2.254341e+00	-1.691277e+01	5.508001e+01	0	0
3564922	2.255000e+00	-1.064548e+01	6.805650e+01	0	0
3566875	2.255000e+00	9.356171e-01	-1.326299e+01	0	0
3568828	2.255000e+00	-2.751453e+00	1.060584e+01	0	0
3570781	2.255341e+00	-6.763214e+00	-3.268709e+01	0	0
3572734	2.256000e+00	-1.536058e+00	-8.076711e+01	0	0
3574688	2.256000e+00	4.657086e-01	-9.920380e+00	0	0
3576641	2.256342e+00	-1.102564e+01	2.031927e-01	0	0
3578594	2.257000e+00	-2.129697e+01	-2.917929e-02	0	0
3580547	2.257342e+00	-1.592492e+01	-1.613349e+00	0	0
3582500	2.258000e+00	-9.200948e+00	4.098130e+01	0	0
3584453	2.258000e+00	-8.813668e+00	7.379686e+01	0	0
3586406	2.258000e+00	7.618581e+00	7.323858e+00	0	0
3588359	2.258342e+00	1.504827e+01	5.405536e+00	0	0
3590313	2.259000e+00	1.717306e+01	-2.517036e+01	0	0
3592266	2.259000e+00	1.142121e+01	-9.166491e+01	0	0
3594219	2.259342e+00	-3.277965e+00	-5.382066e+01	0	0
3596172	2.260000e+00	2.626899e+00	-6.993058e+00	0	0
3598125	2.260000e+00	1.755059e+00	2.263889e+00	0	0
3600078	2.260342e+00	1.011417e+01	-6.935756e+00	0	0
3602031	2.261000e+00	7.562196e+00	2.878582e+01	0	0
3603984	2.261000e+00	1.903979e+00	7.939251e+01	0	0
3605938	2.261343e+00	1.022775e+01	1.493257e+01	0	0
3607891	2.262000e+00	-4.433248e-02	4.635525e+00	0	0
3609844	2.262000e+00	-1.335196e+01	-2.681059e+01	0	0
3611797	2.262343e+00	5.878568e+00	-8.703984e+01	0	0
3613750	2.263000e+00	3.111312e+00	-4.718490e+01	0	0
3615703	2.263000e+00	1.406231e+00	-1.548884e+01	0	0
3617656	2.263343e+00	3.198528e+00	4.548358e+00	0	0
3619609	2.264000e+00	-1.659905e+00	-5.349631e+00	0	0
3621563	2.264000e+00	-1.470233e+01	2.548313e+01	0	0
3623516	2.264343e+00	-1.078917e+01	9.823026e+01	0	0
3625469	2.265000e+00	-2.015257e+00	5.366674e+01	0	0
3627422	2.265000e+00	-2.766788e+00	-6.210088e+00	0	0
3629375	2.265000e+00	4.408287e+00	-7.363498e+00	0	0
3631328	2.265343e+00	-1.003848e+01	-5.871859e+01	0	0
3633281	2.266000e+00	-3.832530e+00	-8.768099e+01	0	0
3635234	2.266343e+00	5.700291e-01	-4.445995e+01	0	0
3637188	2.267000e+00	-3.045315e+00	7.048375e+00	0	0
3639141	2.267000e+00	1.153449e+00	-3.075988e+00	0	0
3641094	2.267344e+00	1.708593e+01	6.782391e+00	0	0
3643047	2.268000e+00	3.161017e+01	6.411212e+01	0	0
3645000	2.268000e+00	6.407957e+01	6.532119e+01	0	0
3646953	2.268344e+00	1.061519e+02	-1.292955e+01	0	0
3648906	2.269000e+00	1.338385e+02	1.051153e+01	0	0
3650859	2.269000e+00	1.393556e+02	-3.375872e+01	0	0
3652813	2.269344e+00	1.422235e+02	-8.029353e+01	0	0
3654766	2.270000e+00	1.463870e+02	-7.546009e+00	0	0
3656719	2.270000e+00	1.665018e+02	-1.215629e+00	0	0
3658672	2.270000e+00	1.552937e+02	1.641133e+00	0	0
3660625	2.270344e+00	1.434026e+02	-8.223320e+00	0	0
3662578	2.271000e+00	1.584513e+02	3.323391e+01	0	0
3664531	2.271000e+00	1.560719e+02	7.153720e+01	0	0
3666484	2.271344e+00	1.818477e+02	-7.726624e+00	0	0
3668438	2.272000e+00	1.994358e+02	8.373835e+00	0	0
3670391	2.272000e+00	1.995888e+02	-2.845723e+01	0	0
3672344	2.272345e+00	2.007594e+02	-9.146599e+01	0	0
3674297	2.273000e+00	1.987389e+02	-3.711499e+01	0	0
3676250	2.273000e+00	1.840189e+02	4.646816e+00	0	0
3678203	2.273345e+00	1.961201e+02	1.897210e-01	0	0
3680156	2.274000e+00	2.020929e+02	-6.666504e+00	0	0
3682109	2.274345e+00	2.139745e+02	2.846685e+01	0	0
3684063	2.275000e+00	2.495706e+02	8.396555e+01	0	0
3686016	2.275000e+00	2.597033e+02	2.128394e+01	0	0
3687969	2.275000e+00	2.680757e+02	3.499299e+00	0	0
3689922	2.275345e+00	2.565587e+02	-2.790513e+01	0	0
3691875	2.276000e+00	2.467390e+02	-8.629846e+01	0	0
3693828	2.276000e+00	2.440401e+02	-5.083312e+01	0	0
3695781	2.276345e+00	2.303573e+02	-2.646105e+01	0	0
3697734	2.277000e+00	2.044629e+02	5.257537e+00	0	0
3699688	2.277000e+00	2.010163e+02	-7.418734e+00	0	0
3701641	2.277345e+00	1.998145e+02	2.596381e+01	0	0
3703594	2.278000e+00	2.021186e+02	9.611381e+01	0	0
3705547	2.278000e+00	1.899740e+02	4.795655e+01	0	0
3707500	2.278345e+00	1.715749e+02	-6.420604e+00	0	0
3709453	2.279000e+00	1.627296e+02	-4.240771e+00	0	0
3711406	2.279000e+00	1.252249e+02	-5.621741e+01	0	0
3713359	2.279345e+00	1.040183e+02	-8.485783e+01	0	0
3715313	2.280000e+00	8.930763e+01	-3.011348e+01	0	0
3717266	2.280000e+00	6.813978e+01	4.413590e+00	0	0
3719219	2.280346e+00	4.958950e+01	-3.818568e+00	0	0
3721172	2.281000e+00	3.037538e+01	1.103284e+01	0	0
3723125	2.281000e+00	3.867384e+01	7.608659e+01	0	0
3725078	2.281346e+00	2.820606e+01	6.717428e+01	0	0
3727031	2.282000e+00	2.520273e+01	-1.329489e+01	0	0
3728984	2.282000e+00	3.226404e+01	1.056574e+01	0	0
3730938	2.282346e+00	9.546122e+00	-3.452574e+01	0	0
3732891	2.283000e+00	4.314053e+00	-9.123679e+01	0	0
3734844	2.283000e+00	-1.034027e+01	-2.040970e+01	0	0
3736797	2.283346e+00	-2.751836e+00	1.690346e+00	0	0
3738750	2.284000e+00	-1.460671e+01	7.424529e-01	0	0
3740703	2.284000e+00	-2.291184e+01	-5.343837e+00	0	0
3742656	2.284346e+00	-2.551850e+01	4.220469e+01	0	0
3744609	2.285000e+00	-2.402531e+01	7.091271e+01	0	0
3746563	2.285000e+00	-1.426255e+01	-1.412443e+01	0	0
3748516	2.285000e+00	-1.599872e+01	1.017670e+01	0	0
3750469	2.285347e+00	-1.246961e+01	-3.101529e+01	0	0
3752422	2.286000e+00	-2.806770e+01	-8.575476e+01	0	0
3754375	2.286000e+00	-3.771955e+01	-2.841498e+01	0	0
3756328	2.286347e+00	-3.824057e+01	-3.670789e+00	0	0
3758281	2.287000e+00	-4.924336e+01	1.840602e+00	0	0
3760234	2.287347e+00	-5.853538e+01	-6.594259e+00	0	0
3762188	2.288000e+00	-5.724341e+01	2.732087e+01	0	0
3764141	2.288000e+00	-4.452597e+01	8.192973e+01	0	0
3766094	2.288000e+00	-3.193840e+01	2.368067e+01	0	0
3768047	2.288347e+00	-3.328959e+01	2.869444e+00	0	0
3770000	2.289000e+00	-4.326734e+01	-2.608196e+01	0	0
3771953	2.289000e+00	-5.085081e+01	-8.338265e+01	0	0
3773906	2.289347e+00	-5.387418e+01	-4.041438e+01	0	0
3775859	2.290000e+00	-4.835883e+01	-1.103642e+01	0	0
3777813	2.290348e+00	-6.455815e+01	2.990395e+00	0	0
3779766	2.291000e+00	-7.129000e+01	-6.580053e+00	0	0
3781719	2.291000e+00	-6.427166e+01	2.659990e+01	0	0
3783672	2.291000e+00	-7.235121e+01	9.335636e+01	0	0
3785625	2.291348e+00	-5.687727e+01	4.269937e+01	0	0
3787578	2.292000e+00	-4.808102e+01	-4.248756e+00	0	0
3789531	2.292000e+00	-5.747653e+01	-8.270672e+00	0	0
3791484	2.292348e+00	-5.528187e+01	-6.529955e+01	0	0
3793438	2.293000e+00	-5.672395e+01	-8.364343e+01	0	0
3795391	2.293000e+00	-5.808279e+01	-2.812215e+01	0	0
3797344	2.293348e+00	-6.322422e+01	4.158873e+00	0	0
3799297	2.294000e+00	-9.744005e+01	-1.762927e+00	0	0
3801250	2.294348e+00	-1.348882e+02	4.303762e+00	0	0
3803203	2.295000e+00	-1.470954e+02	6.310537e+01	0	0
3805156	2.295000e+00	-1.218772e+02	7.044991e+01	0	0
3807109	2.295000e+00	-6.104239e+01	-1.385060e+01	0	0
3809063	2.295349e+00	1.608095e+01	1.121148e+01	0	0
3811016	2.296000e+00	7.233054e+01	-3.498594e+01	0	0
3812969	2.296000e+00	1.874288e+02	-8.834280e+01	0	0
3814922	2.296349e+00	2.724168e+02	-1.630553e+01	0	0
3816875	2.297000e+00	4.082450e+02	-3.432424e-01	0	0
3818828	2.297000e+00	6.822421e+02	-3.817304e+00	0	0
3820781	2.297348e+00	9.471891e+02	-3.818641e+00	0	0
3822734	2.298000e+00	1.178123e+03	4.681696e+01	0	0
3824688	2.298000e+00	1.454303e+03	7.114205e+01	0	0
3826641	2.298349e+00	1.729387e+03	-3.016218e+00	0	0
3828594	2.299000e+00	1.926267e+03	5.889717e+00	0	0
3830547	2.299000e+00	1.955654e+03	-3.186088e+01	0	0
3832500	2.299349e+00	1.841184e+03	-8.581779e+01	0	0
3834453	2.300000e+00	1.591918e+03	-3.942832e+01	0	0
3836406	2.300000e+00	1.251917e+03	-1.829723e+01	0	0
3838359	2.300349e+00	9.963010e+02	4.685931e+00	0	0
3840313	2.301000e+00	8.101305e+02	-8.069558e+00	0	0
3842266	2.301000e+00	6.587167e+02	3.125950e+01	0	0
3844219	2.301349e+00	3.654276e+02	7.333922e+01	0	0
3846172	2.302000e+00	2.626959e+01	3.431240e+00	0	0
3848125	2.302000e+00	-1.431872e+02	6.218868e+00	0	0
3850078	2.302349e+00	-1.720787e+02	-2.421952e+01	0	0
3852031	2.303000e+00	-1.703220e+02	-9.222269e+01	0	0
3853984	2.303000e+00	-1.553780e+02	-5.904400e+01	0	0
3855938	2.303000e+00	-1.243004e+02	-5.370651e+00	0	0
3857891	2.303350e+00	-1.010706e+02	5.268231e+00	0	0
3859844	2.304000e+00	-6.696052e+01	-2.457786e+00	0	0
3861797	2.304350e+00	-3.074648e+01	3.133217e+01	0	0
3863750	2.305000e+00	-1.778605e+01	9.182034e+01	0	0
3865703	2.305000e+00	2.610726e+00	3.771636e+01	0	0
3867656	2.305350e+00	2.629861e+00	5.505589e+00	0	0
3869609	2.306000e+00	2.014514e+00	-1.935016e+01	0	0
3871563	2.306000e+00	-8.678116e+00	-8.495015e+01	0	0
3873516	2.306000e+00	-2.374931e+01	-8.172133e+01	0	0
3875469	2.306350e+00	-1.599608e+01	-4.496207e+01	0	0
3877422	2.307000e+00	-3.607542e+01	1.015824e+01	0	0
3879375	2.307350e+00	-3.940238e+01	-2.741511e-01	0	0
3881328	2.308000e+00	-2.620159e+01	1.140782e+01	0	0
3883281	2.308000e+00	-4.256869e+01	6.955569e+01	0	0
3885234	2.308350e+00	-3.206273e+01	6.561627e+01	0	0
3887188	2.309000e+00	-2.043040e+01	-1.294800e+01	0	0
3889141	2.309000e+00	-4.300704e+01	9.447113e+00	0	0
3891094	2.309351e+00	-4.483334e+01	-3.661260e+01	0	0
3893047	2.310000e+00	-3.778622e+01	-8.742266e+01	0	0
3895000	2.310000e+00	-2.429765e+01	-2.011415e+01	0	0
3896953	2.310000e+00	-3.738748e+01	-9.076451e+00	0	0
3898906	2.310351e+00	-3.351452e+01	-1.176749e+01	0	0
3900859	2.311000e+00	-1.451987e+01	3.214009e-01	0	0
3902813	2.311000e+00	-2.961156e+01	5.863586e+01	0	0
3904766	2.311351e+00	-1.950757e+01	6.379131e+01	0	0
3906719	2.312000e+00	-1.275276e+01	-3.021405e+00	0	0
3908672	2.312351e+00	-1.316546e+01	6.745893e+00	0	0
3910625	2.313000e+00	-1.143108e+01	-2.776342e+01	0	0
3912578	2.313000e+00	-5.146537e+00	-8.378810e+01	0	0
3914531	2.313351e+00	2.131428e+00	-4.038046e+01	0	0
3916484	2.314000e+00	-1.518616e+01	-6.238722e+00	0	0
3918438	2.314000e+00	-2.426676e+01	8.263488e+00	0	0
3920391	2.314352e+00	-3.081381e+01	-3.656716e+00	0	0
3922344	2.315000e+00	-2.728357e+01	3.471090e+01	0	0
3924297	2.315000e+00	-2.066877e+01	7.241930e+01	0	0
3926250	2.315000e+00	-2.683613e+00	-1.871957e+00	0	0
3928203	2.315352e+00	1.316934e+01	6.205640e+00	0	0
3930156	2.316000e+00	6.103433e+00	-2.986563e+01	0	0
3932109	2.316000e+00	-1.843563e+00	-8.598634e+01	0	0
3934063	2.316352e+00	-9.533301e+00	-4.366837e+01	0	0
3936016	2.317000e+00	-6.085154e+00	-1.719394e+01	0	0
3937969	2.317352e+00	8.339780e+00	9.763537e-01	0	0
3939922	2.318000e+00	1.835986e+01	-1.064465e+01	0	0
3941875	2.318000e+00	2.664455e+01	2.164617e+01	0	0
3943828	2.318000e+00	1.736818e+01	9.195097e+01	0	0
3945781	2.318352e+00	2.532534e+01	4.526285e+01	0	0
3947734	2.319000e+00	3.436044e+01	-2.681493e+00	0	0
3949688	2.319352e+00	4.563541e+01	-2.040254e+01	0	0
3951641	2.320000e+00	4.706353e+01	-8.562439e+01	0	0
3953594	2.320000e+00	2.633798e+01	-7.695818e+01	0	0
3955547	2.320000e+00	3.414589e+01	-2.965292e+01	0	0
3957500	2.320352e+00	2.718533e+01	1.032346e+01	0	0
3959453	2.321000e+00	4.419327e+00	-1.376869e+00	0	0
3961406	2.321352e+00	8.707556e+00	2.075888e+01	0	0
3963359	2.322000e+00	2.855542e+01	8.823610e+01	0	0
3965313	2.322000e+00	3.636623e+01	6.126551e+01	0	0
3967266	2.322000e+00	5.003869e+01	-1.259165e+01	0	0
3969219	2.322353e+00	6.740176e+01	9.618663e+00	0	0
3971172	2.323000e+00	5.744404e+01	-3.736438e+01	0	0
3973125	2.323000e+00	5.556688e+01	-8.782344e+01	0	0
3975078	2.323353e+00	5.018570e+01	-1.661503e+01	0	0
3977031	2.324000e+00	4.069372e+01	-3.578700e+00	0	0
3978984	2.324000e+00	4.597332e+01	-1.833922e-01	0	0
3980938	2.324353e+00	4.195422e+01	-4.300593e+00	0	0
3982891	2.325000e+00	4.603763e+01	4.048785e+01	0	0
3984844	2.325000e+00	6.136872e+01	6.415255e+01	0	0
3986797	2.325353e+00	7.397231e+01	-1.130509e+01	0	0
3988750	2.326000e+00	9.221084e+01	1.406121e+01	0	0
3990703	2.326000e+00	1.003882e+02	-2.041352e+01	0	0
3992656	2.326353e+00	1.061067e+02	-8.462697e+01	0	0
3994609	2.327000e+00	9.929495e+01	-4.490382e+01	0	0
3996563	2.327000e+00	9.273121e+01	-5.673668e-01	0	0
3998516	2.327354e+00	8.794950e+01	1.254835e+00	0	0
4000469	2.328000e+00	9.095280e+01	-6.676569e+00	0	0
4002422	2.328000e+00	1.035523e+02	2.899817e+01	0	0
4004375	2.328354e+00	1.201998e+02	7.678872e+01	0	0
4006328	2.329000e+00	1.360559e+02	1.434970e+01	0	0
4008281	2.329000e+00	1.302959e+02	4.450251e+00	0	0
4010234	2.329354e+00	1.611927e+02	-2.977833e+01	0	0
4012188	2.330000e+00	1.447901e+02	-8.475160e+01	0	0
4014141	2.330000e+00	1.449790e+02	-4.176198e+01	0	0
4016094	2.330354e+00	1.648299e+02	-1.678316e+01	0	0
4018047	2.331000e+00	1.516342e+02	6.795044e-02	0	0
4020000	2.331000e+00	1.609367e+02	-1.020849e+01	0	0
4021953	2.331354e+00	1.739362e+02	2.385436e+01	0	0
4023906	2.332000e+00	1.862912e+02	8.983889e+01	0	0
4025859	2.332000e+00	1.875382e+02	3.945632e+01	0	0
4027813	2.332355e+00	1.925049e+02	-5.083282e-01	0	0
4029766	2.333000e+00	2.078794e+02	-2.096532e+01	0	0
4031719	2.333000e+00	2.000232e+02	-8.982763e+01	0	0
4033672	2.333000e+00	2.136815e+02	-7.781672e+01	0	0
4035625	2.333355e+00	2.375007e+02	-2.452649e+01	0	0
4037578	2.334000e+00	2.401420e+02	9.462777e+00	0	0
4039531	2.334000e+00	2.604413e+02	-6.983950e-01	0	0
4041484	2.334355e+00	2.679274e+02	1.894099e+01	0	0
4043438	2.335000e+00	2.890661e+02	9.006283e+01	0	0
4045391	2.335000e+00	2.999022e+02	6.837494e+01	0	0
4047344	2.335355e+00	3.150058e+02	-1.331545e+01	0	0
4049297	2.336000e+00	3.344274e+02	1.125461e+01	0	0
4051250	2.336000e+00	3.391613e+02	-3.939006e+01	0	0
4053203	2.336355e+00	3.399747e+02	-9.901792e+01	0	0
4055156	2.337000e+00	3.428220e+02	-2.373260e+01	0	0
4057109	2.337000e+00	3.593055e+02	-5.125948e-01	0	0
4059063	2.337000e+00	3.573913e+02	-2.334981e+00	0	0
4061016	2.337356e+00	3.605078e+02	-4.656820e+00	0	0
4062969	2.338000e+00	3.712178e+02	4.944843e+01	0	0
4064922	2.338000e+00	3.957425e+02	7.078691e+01	0	0
4066875	2.338356e+00	4.081447e+02	-1.436227e+01	0	0
4068828	2.339000e+00	4.166342e+02	1.123469e+01	0	0
4070781	2.339000e+00	4.433383e+02	-3.232666e+01	0	0
4072734	2.339356e+00	4.483964e+02	-8.839062e+01	0	0
4074688	2.340000e+00	4.443501e+02	-3.117151e+01	0	0
4076641	2.340000e+00	4.548450e+02	-5.086058e+00	0	0
4078594	2.340356e+00	4.627913e+02	3.409078e+00	0	0
4080547	2.341000e+00	4.624638e+02	-6.459284e+00	0	0
4082500	2.341000e+00	4.800013e+02	3.195739e+01	0	0
4084453	2.341000e+00	4.915698e+02	8.159012e+01	0	0
4086406	2.341356e+00	4.998224e+02	1.612269e+01	0	0
4088359	2.342000e+00	5.142846e+02	7.108526e+00	0	0
4090313	2.342000e+00	5.159912e+02	-2.443660e+01	0	0
4092266	2.342356e+00	5.011101e+02	-8.796837e+01	0	0
4094219	2.343000e+00	4.936616e+02	-5.070062e+01	0	0
4096172	2.343000e+00	4.812754e+02	-1.000061e+01	0	0
4098125	2.343356e+00	4.668481e+02	7.805500e+00	0	0
4100078	2.344000e+00	4.530788e+02	-2.883306e+00	0	0
4102031	2.344000e+00	4.073914e+02	3.418362e+01	0	0
4103984	2.344000e+00	3.804470e+02	8.912213e+01	0	0
4105938	2.344357e+00	3.655032e+02	2.834541e+01	0	0
4107891	2.345000e+00	3.436200e+02	7.691322e+00	0	0
4109844	2.345000e+00	3.122497e+02	-2.105003e+01	0	0
4111797	2.345357e+00	2.872113e+02	-8.764757e+01	0	0
4113750	2.346000e+00	2.610380e+02	-7.838497e+01	0	0
4115703	2.346000e+00	2.284328e+02	-3.887817e+01	0	0
4117656	2.346000e+00	2.005917e+02	1.122494e+01	0	0
4119609	2.346357e+00	1.731176e+02	-1.510650e+00	0	0
4121563	2.347000e+00	1.465201e+02	1.596662e+01	0	0
4123516	2.347000e+00	1.188445e+02	8.156492e+01	0	0
4125469	2.347357e+00	9.721804e+01	6.806780e+01	0	0
4127422	2.348000e+00	7.296482e+01	-9.588228e+00	0	0
4129375	2.348000e+00	6.937266e+01	1.403671e+01	0	0
4131328	2.348357e+00	4.801780e+01	-3.089561e+01	0	0
4133281	2.349000e+00	1.542891e+01	-9.072333e+01	0	0
4135234	2.349000e+00	-4.310492e+00	-2.502210e+01	0	0
4137188	2.349358e+00	-2.657934e+01	4.765688e+00	0	0
4139141	2.350000e+00	-4.870930e+01	-2.154758e-01	0	0
4141094	2.350000e+00	-6.137260e+01	3.728917e-01	0	0
4143047	2.350000e+00	-6.360326e+01	5.508065e+01	0	0
4145000	2.350358e+00	-6.100665e+01	6.940689e+01	0	0
4146953	2.351000e+00	-6.844079e+01	-1.383610e+01	0	0
4148906	2.351000e+00	-6.860861e+01	1.169041e+01	0	0
4150859	2.351358e+00	-6.088063e+01	-3.314472e+01	0	0
4152813	2.352000e+00	-5.915853e+01	-7.953689e+01	0	0
4154766	2.352000e+00	-7.753034e+01	-9.524499e+00	0	0
4156719	2.352000e+00	-1.126172e+02	3.363477e+00	0	0
4158672	2.352358e+00	-1.197240e+02	4.711423e+00	0	0
4160625	2.353000e+00	-1.147718e+02	-4.703885e+00	0	0
4162578	2.353000e+00	-1.194574e+02	3.297637e+01	0	0
4164531	2.353358e+00	-1.026170e+02	6.933683e+01	0	0
4166484	2.354000e+00	-1.001202e+02	5.534595e-01	0	0
4168438	2.354000e+00	-1.156823e+02	6.963584e+00	0	0
4170391	2.354000e+00	-1.072956e+02	-2.500351e+01	0	0
4172344	2.354359e+00	-1.060819e+02	-8.885620e+01	0	0
4174297	2.355000e+00	-1.191106e+02	-5.411035e+01	0	0
4176250	2.355000e+00	-1.306493e+02	-5.136273e+00	0	0
4178203	2.355359e+00	-1.329005e+02	3.497430e+00	0	0
4180156	2.356000e+00	-1.286138e+02	-3.104472e+00	0	0
4182109	2.356000e+00	-1.490540e+02	3.098000e+01	0	0
4184063	2.356000e+00	-1.530539e+02	8.797655e+01	0	0
4186016	2.356359e+00	-1.275032e+02	3.619044e+01	0	0
4187969	2.357000e+00	-1.389254e+02	9.407694e+00	0	0
4189922	2.357000e+00	-1.319231e+02	-1.687403e+01	0	0
4191875	2.357359e+00	-1.231236e+02	-7.710275e+01	0	0
4193828	2.358000e+00	-1.356370e+02	-4.837027e+01	0	0
4195781	2.358000e+00	-1.403726e+02	-1.551201e+01	0	0
4197734	2.358000e+00	-1.461328e+02	4.163900e+00	0	0
4199688	2.358360e+00	-1.679024e+02	-7.627998e+00	0	0
4201641	2.359000e+00	-1.794962e+02	2.599913e+01	0	0
4203594	2.359000e+00	-1.866760e+02	9.700172e+01	0	0
4205547	2.359000e+00	-1.917271e+02	5.744620e+01	0	0
4207500	2.359359e+00	-1.723433e+02	-4.923448e+00	0	0
4209453	2.360000e+00	-1.417794e+02	-1.946212e+00	0	0
4211406	2.360000e+00	-9.477524e+01	-5.125316e+01	0	0
4213359	2.360000e+00	-5.546412e+01	-7.051442e+01	0	0
4215313	2.360360e+00	-7.445308e+01	-2.068124e+01	0	0
4217266	2.361000e+00	-1.205733e+02	-3.959188e+01	0	0
4219219	2.361000e+00	-1.568956e+02	-4.064435e+01	0	0
4221172	2.361360e+00	-2.017530e+02	-3.601474e+01	0	0
4223125	2.362000e+00	-2.053727e+02	3.986761e-01	0	0
4225078	2.362000e+00	-1.915069e+02	1.241216e+01	0	0
4227031	2.362000e+00	-1.758159e+02	-1.379341e+01	0	0
4228984	2.362360e+00	-1.495698e+02	4.530169e+00	0	0
4230938	2.363000e+00	-1.608576e+02	-1.288975e+01	0	0
4232891	2.363000e+00	-1.788977e+02	-1.679423e+01	0	0
4234844	2.363360e+00	-1.825480e+02	3.160062e+01	0	0
4236797	2.364000e+00	-1.815583e+02	2.741313e+01	0	0
4238750	2.364000e+00	-1.871465e+02	3.121171e+01	0	0
4240703	2.364000e+00	-1.869567e+02	1.823577e+01	0	0
4242656	2.364360e+00	-1.857409e+02	4.231828e+01	0	0
4244609	2.365000e+00	-1.757327e+02	6.059821e+01	0	0
4246563	2.365000e+00	-1.734529e+02	-2.160686e+00	0	0
4248516	2.365000e+00	-1.810180e+02	6.183649e+00	0	0
4250469	2.365361e+00	-1.783345e+02	-3.386360e+01	0	0
4252422	2.366000e+00	-1.884431e+02	-8.795407e+01	0	0
4254375	2.366000e+00	-1.887994e+02	-4.556730e+01	0	0
4256328	2.366361e+00	-1.763180e+02	-1.254000e+01	0	0
4258281	2.367000e+00	-1.681511e+02	-4.479986e+00	0	0
4260234	2.367000e+00	-1.821390e+02	-8.624660e+00	0	0
4262188	2.367000e+00	-1.756197e+02	2.818924e+01	0	0
4264141	2.367361e+00	-1.597281e+02	8.923687e+01	0	0
4266094	2.368000e+00	-1.525040e+02	3.475762e+01	0	0
4268047	2.368000e+00	-1.459044e+02	3.385069e-01	0	0
4270000	2.368000e+00	-1.471453e+02	-2.924194e+01	0	0
4271953	2.368361e+00	-1.626230e+02	-8.534316e+01	0	0
4273906	2.369000e+00	-1.680286e+02	-5.509761e+01	0	0
4275859	2.369000e+00	-1.779183e+02	-2.777614e+01	0	0
4277813	2.369000e+00	-1.833729e+02	8.448093e+00	0	0
4279766	2.369362e+00	-1.735983e+02	-5.564892e+00	0	0
4281719	2.370000e+00	-1.775297e+02	2.027442e+01	0	0
4283672	2.370000e+00	-1.836497e+02	9.300611e+01	0	0
4285625	2.370362e+00	-1.761813e+02	6.167274e+01	0	0
4287578	2.371000e+00	-1.828437e+02	-1.124067e+01	0	0
4289531	2.371000e+00	-1.710507e+02	1.045017e+01	0	0
4291484	2.371000e+00	-1.507003e+02	-3.865003e+01	0	0
4293438	2.371362e+00	-1.519032e+02	-8.871530e+01	0	0
4295391	2.372000e+00	-1.439291e+02	-1.570489e+01	0	0
4297344	2.372000e+00	-1.649951e+02	1.165873e+00	0	0
4299297	2.372362e+00	-1.685436e+02	9.712461e-01	0	0
4301250	2.373000e+00	-1.840673e+02	-2.486622e+00	0	0
4303203	2.373000e+00	-1.978553e+02	4.844039e+01	0	0
4305156	2.373000e+00	-1.884564e+02	6.718631e+01	0	0
4307109	2.373000e+00	-1.708614e+02	-1.104354e+01	0	0
4309063	2.373363e+00	-1.711864e+02	8.248816e+00	0	0
4311016	2.374000e+00	-1.760365e+02	-3.944267e+01	0	0
4312969	2.374000e+00	-1.839864e+02	-8.524302e+01	0	0
4314922	2.374363e+00	-1.887352e+02	-2.553228e+01	0	0
4316875	2.375000e+00	-1.791808e+02	2.901166e+00	0	0
4318828	2.375000e+00	-1.948014e+02	1.228664e+00	0	0
4320781	2.375363e+00	-1.891857e+02	-6.953721e+00	0	0
4322734	2.376000e+00	-1.849156e+02	3.273264e+01	0	0
4324688	2.376000e+00	-1.849586e+02	7.589435e+01	0	0
4326641	2.376000e+00	-1.873424e+02	6.800811e+00	0	0
4328594	2.376363e+00	-1.826523e+02	7.309721e+00	0	0
4330547	2.377000e+00	-1.730309e+02	-2.966182e+01	0	0
4332500	2.377000e+00	-1.889357e+02	-8.453507e+01	0	0
4334453	2.377000e+00	-1.935180e+02	-3.502253e+01	0	0
4336406	2.377363e+00	-2.005451e+02	-8.332355e+00	0	0
4338359	2.378000e+00	-2.008981e+02	3.485970e+00	0	0
4340313	2.378000e+00	-2.126765e+02	-7.578617e+00	0	0
4342266	2.378363e+00	-2.214514e+02	3.286653e+01	0	0
4344219	2.379000e+00	-2.005186e+02	8.384788e+01	0	0
4346172	2.379000e+00	-1.963652e+02	1.611753e+01	0	0
4348125	2.379000e+00	-1.927802e+02	4.998148e+00	0	0
4350078	2.379000e+00	-1.787418e+02	-2.980173e+01	0	0
4352031	2.379363e+00	-1.827621e+02	-9.485439e+01	0	0
4353984	2.380000e+00	-1.934325e+02	-5.946328e+01	0	0
4355938	2.380000e+00	-2.029057e+02	-2.107570e+01	0	0
4357891	2.380364e+00	-1.835257e+02	5.380042e+00	0	0
4359844	2.381000e+00	-1.625894e+02	-7.134433e+00	0	0
4361797	2.381000e+00	-1.562201e+02	3.046579e+01	0	0
4363750	2.381000e+00	-1.282300e+02	9.605808e+01	0	0
4365703	2.381364e+00	-1.272743e+02	4.075117e+01	0	0
4367656	2.382000e+00	-1.017664e+02	-4.394717e+00	0	0
4369609	2.382000e+00	-8.686245e+01	-4.462671e+00	0	0
4371563	2.382000e+00	-9.703518e+01	-5.232854e+01	0	0
4373516	2.382364e+00	-1.101012e+02	-9.698352e+01	0	0
4375469	2.383000e+00	-1.186418e+02	-5.234624e+01	0	0
4377422	2.383000e+00	-1.175163e+02	8.411237e+00	0	0
4379375	2.383000e+00	-1.171210e+02	-2.675229e+00	0	0
4381328	2.383364e+00	-9.651333e+01	3.462536e+00	0	0
4383281	2.384000e+00	-8.358778e+01	5.795156e+01	0	0
4385234	2.384000e+00	-7.844796e+01	6.449119e+01	0	0
4387188	2.384000e+00	-6.236114e+01	-1.314744e+01	0	0
4389141	2.384365e+00	-3.603779e+01	1.094913e+01	0	0
4391094	2.385000e+00	-3.396198e+01	-3.463020e+01	0	0
4393047	2.385000e+00	-3.475035e+01	-7.838241e+01	0	0
4395000	2.385000e+00	-2.230470e+01	-1.004218e+01	0	0
4396953	2.385365e+00	-1.784350e+01	-7.448289e-01	0	0
4398906	2.386000e+00	-1.934558e+01	-2.906178e-01	0	0
4400859	2.386000e+00	-1.612418e+01	-1.760999e+00	0	0
4402813	2.386365e+00	-1.127422e+01	4.281449e+01	0	0
4404766	2.387000e+00	-3.057094e+01	6.837546e+01	0	0
4406719	2.387000e+00	-2.901936e+01	1.498105e+00	0	0
4408672	2.387000e+00	-3.102053e+01	6.889397e+00	0	0
4410625	2.387000e+00	-3.850730e+01	-2.763369e+01	0	0
4412578	2.387365e+00	-5.304745e+01	-8.229954e+01	0	0
4414531	2.388000e+00	-6.520020e+01	-4.685765e+01	0	0
4416484	2.388000e+00	-7.260427e+01	-1.627828e+01	0	0
4418438	2.388000e+00	-8.306808e+01	4.372904e+00	0	0
4420391	2.388366e+00	-7.799901e+01	-6.717986e+00	0	0
4422344	2.389000e+00	-8.868748e+01	2.954419e+01	0	0
4424297	2.389000e+00	-1.117999e+02	7.531713e+01	0	0
