time	gsr	ecg	emg_trapezius	emg_corrugator	emg_zygomaticus
1797	2.206000e+00	-1.350241e+02	3.010590e+00	0	0
3750	2.206000e+00	-1.358009e+02	-7.448123e+01	0	0
5703	2.206000e+00	-1.360255e+02	-3.870692e+01	0	0
7656	2.206000e+00	-1.551051e+02	-2.366342e+00	0	0
9609	2.206000e+00	-1.602096e+02	-1.601768e+00	0	0
11563	2.206000e+00	-1.471337e+02	-1.103051e+00	0	0
13516	2.206000e+00	-1.498320e+02	2.290086e+00	0	0
15469	2.206000e+00	-1.480498e+02	7.127304e+01	0	0
17422	2.206000e+00	-1.416822e+02	4.204969e+00	0	0
19375	2.206000e+00	-1.341440e+02	-2.902848e+00	0	0
21328	2.206000e+00	-1.304819e+02	3.538449e+00	0	0
23281	2.206000e+00	-1.396647e+02	-6.763306e+01	0	0
25234	2.206000e+00	-1.365436e+02	-4.024012e+01	0	0
27188	2.206000e+00	-1.414891e+02	-5.228238e+00	0	0
29141	2.206000e+00	-1.446616e+02	7.598082e-02	0	0
31094	2.206000e+00	-1.485075e+02	1.242273e+00	0	0
33047	2.206000e+00	-1.453488e+02	-3.166317e+00	0	0
35000	2.206000e+00	-1.399996e+02	6.536531e+01	0	0
36953	2.206000e+00	-1.392780e+02	1.196304e+01	0	0
38906	2.206000e+00	-1.357678e+02	-1.219752e+00	0	0
40859	2.206000e+00	-1.307990e+02	3.464711e+00	0	0
42813	2.206000e+00	-1.302021e+02	-6.154706e+01	0	0
44766	2.206000e+00	-1.330802e+02	-4.638193e+01	0	0
46719	2.206000e+00	-1.440088e+02	-1.642958e+01	0	0
48672	2.206000e+00	-1.490179e+02	2.136618e-01	0	0
50625	2.206000e+00	-1.460569e+02	2.144828e+00	0	0
52578	2.205077e+00	-1.496479e+02	-1.376417e+00	0	0
54531	2.205923e+00	-1.425222e+02	6.190187e+01	0	0
56484	2.206000e+00	-1.340302e+02	5.438359e+01	0	0
58438	2.205076e+00	-1.306439e+02	2.146810e+00	0	0
60391	2.205000e+00	-1.211584e+02	2.545522e+00	0	0
62344	2.205000e+00	-1.268916e+02	-6.124744e+01	0	0
64297	2.205000e+00	-1.288257e+02	-6.185895e+01	0	0
66250	2.205000e+00	-1.309032e+02	-4.324850e+01	0	0
68203	2.205000e+00	-1.315998e+02	-1.835087e+00	0	0
70156	2.205000e+00	-1.352516e+02	1.463856e+00	0	0
72109	2.205000e+00	-1.405072e+02	-1.871382e+00	0	0
74063	2.205000e+00	-1.344461e+02	5.426360e+01	0	0
76016	2.205000e+00	-1.357630e+02	7.534904e+01	0	0
77969	2.205000e+00	-1.119512e+02	4.461162e+00	0	0
79922	2.205000e+00	-9.641368e+01	-1.571727e+00	0	0
81875	2.205000e+00	-1.054798e+02	4.091991e+00	0	0
83828	2.205000e+00	-1.077639e+02	-7.114013e+01	0	0
85781	2.205000e+00	-9.448166e+01	-3.823110e+01	0	0
87734	2.205000e+00	-1.003108e+02	-8.293673e-01	0	0
89688	2.205000e+00	-1.233694e+02	9.198035e-02	0	0
91641	2.205000e+00	-1.263316e+02	4.260319e-01	0	0
93594	2.205000e+00	-1.175931e+02	4.862977e+00	0	0
95547	2.205000e+00	-1.090816e+02	7.390175e+01	0	0
97500	2.205000e+00	-1.026449e+02	4.968043e+00	0	0
99453	2.205000e+00	-1.031568e+02	-2.334296e+00	0	0
101406	2.205000e+00	-1.025014e+02	3.774460e+00	0	0
103359	2.205000e+00	-1.036958e+02	-7.125497e+01	0	0
105313	2.205000e+00	-1.043325e+02	-2.981890e+01	0	0
107266	2.205000e+00	-9.764302e+01	-1.603957e-01	0	0
109219	2.205000e+00	-1.018806e+02	1.251060e-01	0	0
111172	2.205000e+00	-9.859959e+01	1.297815e+00	0	0
113125	2.205000e+00	-9.399722e+01	-3.033014e+00	0	0
115078	2.205000e+00	-8.748040e+01	6.835993e+01	0	0
117031	2.205000e+00	-8.102687e+01	1.577668e+01	0	0
118984	2.205000e+00	-7.273832e+01	-8.582374e-01	0	0
120938	2.205000e+00	-8.912194e+01	3.349284e+00	0	0
122891	2.205000e+00	-8.986635e+01	-6.357535e+01	0	0
124844	2.205000e+00	-9.870109e+01	-5.381759e+01	0	0
126797	2.204073e+00	-8.835202e+01	-5.675883e+00	0	0
128750	2.204000e+00	-9.530684e+01	5.366780e-01	0	0
130703	2.204000e+00	-1.045739e+02	1.066169e+00	0	0
132656	2.204000e+00	-1.025309e+02	-2.244592e+00	0	0
134609	2.204000e+00	-1.065603e+02	6.324668e+01	0	0
136563	2.204000e+00	-1.017197e+02	5.604762e+01	0	0
138516	2.204000e+00	-9.432972e+01	1.981036e+00	0	0
140469	2.204000e+00	-7.805044e+01	2.360464e+00	0	0
142422	2.204000e+00	-7.659104e+01	-6.060848e+01	0	0
144375	2.204000e+00	-7.214965e+01	-6.955958e+01	0	0
146328	2.204000e+00	-9.285995e+01	-3.494285e+01	0	0
148281	2.204000e+00	-9.410130e+01	-8.794001e-01	0	0
150234	2.204000e+00	-1.045605e+02	1.082077e+00	0	0
152188	2.204000e+00	-1.040834e+02	-7.864966e-01	0	0
154141	2.204000e+00	-1.008792e+02	3.825672e+01	0	0
156094	2.204000e+00	-9.323993e+01	7.518452e+01	0	0
158047	2.204000e+00	-8.457991e+01	4.670864e+00	0	0
160000	2.204000e+00	-9.243879e+01	-1.453730e+00	0	0
161953	2.204000e+00	-1.031575e+02	3.890436e+00	0	0
163906	2.204000e+00	-1.037741e+02	-7.056844e+01	0	0
165859	2.204000e+00	-1.044239e+02	-4.906479e+01	0	0
167813	2.204000e+00	-1.035913e+02	-1.148422e+00	0	0
169766	2.204000e+00	-9.918370e+01	7.744250e-01	0	0
171719	2.204000e+00	-9.033561e+01	8.024390e-01	0	0
173672	2.204000e+00	-1.115390e+02	6.968049e+00	0	0
175625	2.204000e+00	-1.014874e+02	7.235855e+01	0	0
177578	2.204000e+00	-9.610021e+01	5.126267e+00	0	0
179531	2.204000e+00	-9.796546e+01	-1.511047e+00	0	0
181484	2.204000e+00	-9.138309e+01	3.760619e+00	0	0
183438	2.203071e+00	-1.018691e+02	-6.661967e+01	0	0
185391	2.203929e+00	-1.073933e+02	-4.419620e+01	0	0
187344	2.203071e+00	-1.102936e+02	-8.706886e-01	0	0
189297	2.203000e+00	-1.112683e+02	6.199077e-01	0	0
191250	2.203929e+00	-1.160468e+02	1.237826e+00	0	0
193203	2.203071e+00	-1.145475e+02	-2.700299e+00	0	0
195156	2.203000e+00	-1.073667e+02	6.631683e+01	0	0
197109	2.203000e+00	-1.053678e+02	1.565838e+01	0	0
199063	2.203000e+00	-9.753599e+01	-6.814364e-01	0	0
201016	2.203000e+00	-8.706860e+01	3.295959e+00	0	0
202969	2.203000e+00	-9.333727e+01	-6.339664e+01	0	0
204922	2.203000e+00	-9.837332e+01	-5.504600e+01	0	0
206875	2.203000e+00	-1.146260e+02	-1.864077e+01	0	0
208828	2.203000e+00	-1.093914e+02	-2.072001e-01	0	0
210781	2.203000e+00	-1.203864e+02	1.378544e+00	0	0
212734	2.203000e+00	-1.217211e+02	-2.358535e+00	0	0
214688	2.203000e+00	-1.222499e+02	6.615101e+01	0	0
216641	2.203000e+00	-1.137607e+02	4.785863e+01	0	0
218594	2.203000e+00	-1.084345e+02	1.264997e+00	0	0
220547	2.203000e+00	-1.073769e+02	3.047776e+00	0	0
222500	2.203000e+00	-1.077928e+02	-6.816537e+01	0	0
224453	2.203000e+00	-1.079075e+02	-5.345648e+01	0	0
226406	2.203000e+00	-1.146102e+02	-3.078643e+01	0	0
228359	2.203000e+00	-1.182017e+02	-9.316450e-01	0	0
230313	2.203000e+00	-1.206684e+02	1.312313e+00	0	0
232266	2.203000e+00	-1.189966e+02	-1.309636e+00	0	0
234219	2.203000e+00	-1.125001e+02	5.229223e+01	0	0
236172	2.203000e+00	-1.178338e+02	8.198175e+01	0	0
238125	2.203000e+00	-1.172800e+02	4.698113e+00	0	0
240078	2.203000e+00	-1.095316e+02	-1.455103e+00	0	0
242031	2.203000e+00	-1.029209e+02	4.211734e+00	0	0
243984	2.203000e+00	-1.034937e+02	-7.676537e+01	0	0
245938	2.203000e+00	-1.148468e+02	-4.149880e+01	0	0
247891	2.203000e+00	-1.097315e+02	-4.238296e-01	0	0
249844	2.203000e+00	-9.892856e+01	5.623123e-01	0	0
251797	2.203000e+00	-9.204207e+01	1.257676e+00	0	0
253750	2.202068e+00	-8.122287e+01	7.299311e-01	0	0
255703	2.202000e+00	-3.886174e+01	7.739003e+01	0	0
257656	2.202000e+00	-2.566885e+00	5.416495e+00	0	0
259609	2.202000e+00	1.169451e+01	-1.582196e+00	0	0
261563	2.202000e+00	3.021134e+01	4.038857e+00	0	0
263516	2.202000e+00	2.743800e+01	-7.060933e+01	0	0
265469	2.202000e+00	3.535780e+01	-2.978126e+01	0	0
267422	2.202000e+00	3.674414e+01	1.720879e-01	0	0
269375	2.202000e+00	2.832873e+01	4.160786e-01	0	0
271328	2.202000e+00	2.448262e+01	1.308082e+00	0	0
273281	2.202000e+00	3.991139e+01	-2.489890e+00	0	0
275234	2.202000e+00	5.535540e+01	6.463930e+01	0	0
277188	2.202000e+00	7.950459e+01	1.285591e+01	0	0
279141	2.202000e+00	8.846899e+01	-6.805867e-01	0	0
281094	2.202000e+00	9.578909e+01	3.165847e+00	0	0
283047	2.202000e+00	9.191239e+01	-6.053421e+01	0	0
285000	2.202000e+00	8.240835e+01	-5.205367e+01	0	0
286953	2.202000e+00	9.020199e+01	-2.577212e+01	0	0
288906	2.202000e+00	9.381558e+01	-5.987739e-01	0	0
290859	2.202000e+00	1.008402e+02	1.504960e+00	0	0
292813	2.202000e+00	1.189177e+02	-2.204114e+00	0	0
294766	2.202000e+00	1.248458e+02	6.313418e+01	0	0
296719	2.202000e+00	1.407505e+02	3.479860e+01	0	0
298672	2.202000e+00	1.398983e+02	7.896146e-01	0	0
300625	2.202000e+00	1.430224e+02	3.336630e+00	0	0
302578	2.202000e+00	1.453087e+02	-6.366370e+01	0	0
304531	2.202000e+00	1.195671e+02	-6.474000e+01	0	0
306484	2.202000e+00	1.133128e+02	-3.399405e+01	0	0
308438	2.202000e+00	1.065205e+02	-7.699196e-01	0	0
310391	2.202000e+00	9.079728e+01	1.400333e+00	0	0
312344	2.201066e+00	1.042081e+02	-1.572763e+00	0	0
314297	2.201934e+00	9.071731e+01	5.991170e+01	0	0
316250	2.202000e+00	6.874844e+01	8.028979e+01	0	0
318203	2.201066e+00	4.346402e+01	4.303256e+00	0	0
320156	2.201000e+00	3.177227e+01	-2.001286e+00	0	0
322109	2.201934e+00	2.100636e+01	1.125190e+00	0	0
324063	2.201065e+00	-1.547979e+01	-7.719506e+01	0	0
326016	2.201000e+00	-2.976926e+01	-3.225793e+01	0	0
327969	2.201000e+00	-3.646958e+01	-1.418358e+00	0	0
329922	2.201000e+00	-6.282431e+01	-3.873351e-01	0	0
331875	2.201000e+00	-8.789491e+01	5.472190e-01	0	0
333828	2.201000e+00	-1.007015e+02	1.443385e+01	0	0
335781	2.201000e+00	-1.149166e+02	7.383004e+01	0	0
337734	2.201000e+00	-8.899185e+01	4.711316e+00	0	0
339688	2.201000e+00	-1.010331e+02	-1.219353e+00	0	0
341641	2.201000e+00	-9.834295e+01	3.505880e+00	0	0
343594	2.201000e+00	-1.113899e+02	-6.559615e+01	0	0
345547	2.201000e+00	-1.303416e+02	-4.327433e+01	0	0
347500	2.201000e+00	-1.331961e+02	-2.019132e-01	0	0
349453	2.201000e+00	-1.325823e+02	1.451712e+00	0	0
351406	2.201000e+00	-1.470549e+02	1.964206e+00	0	0
353359	2.201000e+00	-1.509097e+02	-2.016240e+00	0	0
355313	2.201000e+00	-1.422465e+02	6.371155e+01	0	0
357266	2.201000e+00	-1.370163e+02	9.771000e+00	0	0
359219	2.201000e+00	-1.330963e+02	-7.222533e-01	0	0
361172	2.201000e+00	-1.309425e+02	3.005794e+00	0	0
363125	2.201000e+00	-1.393701e+02	-6.010059e+01	0	0
365078	2.201000e+00	-1.455509e+02	-5.727920e+01	0	0
367031	2.201000e+00	-1.373226e+02	-1.262917e+01	0	0
368984	2.201000e+00	-1.621627e+02	3.189903e-01	0	0
370938	2.201000e+00	-1.638676e+02	1.222686e+00	0	0
372891	2.201000e+00	-1.589965e+02	-1.910026e+00	0	0
374844	2.201000e+00	-1.624290e+02	6.302077e+01	0	0
376797	2.201000e+00	-1.544727e+02	4.411155e+01	0	0
378750	2.200064e+00	-1.520707e+02	1.149320e+00	0	0
380703	2.200937e+00	-1.578891e+02	2.761516e+00	0	0
382656	2.201000e+00	-1.507585e+02	-6.444828e+01	0	0
384609	2.200063e+00	-1.591216e+02	-5.167233e+01	0	0
386563	2.200000e+00	-1.541136e+02	-2.478730e+01	0	0
388516	2.200937e+00	-1.642620e+02	-4.077692e-01	0	0
390469	2.201000e+00	-1.625298e+02	1.158227e+00	0	0
392422	2.200063e+00	-1.557780e+02	-9.272135e-01	0	0
394375	2.200000e+00	-1.556730e+02	4.813860e+01	0	0
396328	2.200000e+00	-1.600822e+02	7.767616e+01	0	0
398281	2.200000e+00	-1.556216e+02	4.027898e+00	0	0
400234	2.200000e+00	-1.410743e+02	-6.006698e-01	0	0
402188	2.200000e+00	-1.536149e+02	-8.186468e+00	0	0
404141	2.200000e+00	-1.556570e+02	-7.401885e+01	0	0
406094	2.200000e+00	-1.636217e+02	-4.723226e+01	0	0
408047	2.200000e+00	-1.746318e+02	-8.051531e-01	0	0
410000	2.200000e+00	-2.112680e+02	8.854511e-01	0	0
411953	2.200000e+00	-2.322523e+02	5.463240e-01	0	0
413906	2.200000e+00	-2.398741e+02	1.510473e+01	0	0
415859	2.200000e+00	-2.034773e+02	7.643970e+01	0	0
417813	2.200000e+00	-1.387793e+02	4.634554e+00	0	0
419766	2.200000e+00	-6.837402e+01	-1.296808e+00	0	0
421719	2.200000e+00	3.933809e+01	3.856020e+00	0	0
423672	2.200000e+00	1.258880e+02	-7.043531e+01	0	0
425625	2.200000e+00	2.281089e+02	-1.773170e+01	0	0
427578	2.200000e+00	4.183323e+02	8.536957e-01	0	0
429531	2.200000e+00	6.947794e+02	2.830538e-01	0	0
431484	2.200000e+00	9.225775e+02	1.038038e+00	0	0
433438	2.200000e+00	1.192119e+03	-2.813856e+00	0	0
435391	2.200000e+00	1.478721e+03	6.446340e+01	0	0
437344	2.200000e+00	1.721813e+03	1.154498e+01	0	0
439297	2.200000e+00	1.862873e+03	-6.133361e-01	0	0
441250	2.200000e+00	1.808061e+03	2.964925e+00	0	0
443203	2.200000e+00	1.665385e+03	-6.066682e+01	0	0
445156	2.200000e+00	1.382309e+03	-4.784523e+01	0	0
447109	2.199061e+00	1.074921e+03	-1.407136e+01	0	0
449063	2.199939e+00	8.559115e+02	1.680839e-02	0	0
451016	2.199061e+00	6.806860e+02	1.200748e+00	0	0
452969	2.199000e+00	4.798327e+02	-1.749979e+00	0	0
454922	2.199000e+00	1.360805e+02	6.312315e+01	0	0
456875	2.199000e+00	-1.644615e+02	3.311832e+01	0	0
458828	2.199000e+00	-2.428063e+02	5.121564e-01	0	0
460781	2.199000e+00	-2.747086e+02	2.540365e+00	0	0
462734	2.199000e+00	-2.683697e+02	-6.222953e+01	0	0
464688	2.199000e+00	-2.404473e+02	-5.863060e+01	0	0
466641	2.199000e+00	-2.141628e+02	-1.739586e+01	0	0
468594	2.199000e+00	-1.718467e+02	3.391693e-02	0	0
470547	2.199000e+00	-1.436160e+02	1.065374e+00	0	0
472500	2.199000e+00	-1.151783e+02	-1.503398e+00	0	0
474453	2.199000e+00	-9.468687e+01	6.039764e+01	0	0
476406	2.199000e+00	-8.647687e+01	7.174569e+01	0	0
478359	2.199000e+00	-8.047303e+01	3.327248e+00	0	0
480313	2.199000e+00	-7.469602e+01	-7.386958e-01	0	0
482266	2.199000e+00	-8.770005e+01	-1.492907e+00	0	0
484219	2.199000e+00	-1.024043e+02	-6.753170e+01	0	0
486172	2.199000e+00	-1.124968e+02	-3.653828e+01	0	0
488125	2.199000e+00	-9.250595e+01	-3.212334e-01	0	0
490078	2.199000e+00	-9.840053e+01	5.726905e-01	0	0
492031	2.199000e+00	-1.155716e+02	7.487447e-01	0	0
493984	2.199000e+00	-1.127526e+02	7.719925e+00	0	0
495938	2.199000e+00	-1.113496e+02	7.080408e+01	0	0
497891	2.199000e+00	-1.040254e+02	4.118796e+00	0	0
499844	2.199000e+00	-9.193780e+01	-1.256792e+00	0	0
501797	2.199000e+00	-9.370753e+01	3.409038e+00	0	0
503750	2.199000e+00	-9.935076e+01	-6.802761e+01	0	0
505703	2.199000e+00	-9.667201e+01	-2.117480e+01	0	0
507656	2.199000e+00	-9.961295e+01	4.652064e-01	0	0
509609	2.199000e+00	-1.017948e+02	1.784104e-01	0	0
511563	2.199000e+00	-1.031538e+02	1.131118e+00	0	0
513516	2.199000e+00	-1.035928e+02	-2.409157e+00	0	0
515469	2.198058e+00	-1.092318e+02	6.633725e+01	0	0
517422	2.198000e+00	-9.712807e+01	3.927681e+00	0	0
519375	2.198942e+00	-8.441663e+01	-1.120939e+00	0	0
521328	2.198058e+00	-7.774104e+01	2.793429e+00	0	0
523281	2.198000e+00	-8.599322e+01	-6.251023e+01	0	0
525234	2.198000e+00	-9.157539e+01	-5.532182e+01	0	0
527188	2.198000e+00	-8.505872e+01	-1.133198e+01	0	0
529141	2.198000e+00	-8.723846e+01	1.709402e-01	0	0
531094	2.198000e+00	-7.136786e+01	1.012927e+00	0	0
533047	2.198000e+00	-7.540418e+01	-2.018446e+00	0	0
535000	2.198000e+00	-6.466102e+01	6.399235e+01	0	0
536953	2.198000e+00	-6.034142e+01	3.278901e+01	0	0
538906	2.198000e+00	-5.420068e+01	3.804330e-01	0	0
540859	2.198000e+00	-4.857324e+01	2.441831e+00	0	0
542813	2.198000e+00	-3.999396e+01	-6.289643e+01	0	0
544766	2.198000e+00	-4.268234e+01	-5.515831e+01	0	0
546719	2.198000e+00	-4.387571e+01	-2.558966e+01	0	0
548672	2.198000e+00	-4.483212e+01	-4.559150e-01	0	0
550625	2.198000e+00	-5.847064e+01	1.120228e+00	0	0
552578	2.198000e+00	-5.275337e+01	-1.471725e+00	0	0
554531	2.198000e+00	-4.750150e+01	6.066043e+01	0	0
556484	2.198000e+00	-3.167339e+01	7.223235e+01	0	0
558438	2.198000e+00	-4.186396e+01	2.319692e+00	0	0
560391	2.198000e+00	-1.869792e+01	-2.247137e-01	0	0
562344	2.198000e+00	-1.112908e+01	-1.045264e+01	0	0
564297	2.198000e+00	-1.085880e+01	-7.051369e+01	0	0
566250	2.198000e+00	-1.606823e+01	-5.079157e+01	0	0
568203	2.198000e+00	-2.897906e+01	-9.428670e-01	0	0
570156	2.198000e+00	-2.493526e+01	7.154569e-01	0	0
572109	2.198000e+00	-2.025716e+01	1.921803e+00	0	0
574063	2.198000e+00	-1.231506e+01	8.099797e+00	0	0
576016	2.198000e+00	-1.195471e+01	8.079311e+01	0	0
577969	2.198000e+00	-5.063306e+00	4.472135e+00	0	0
579922	2.198000e+00	5.630534e+00	-1.291316e+00	0	0
581875	2.198000e+00	1.036423e+01	3.580084e+00	0	0
583828	2.197056e+00	8.463178e+00	-7.557368e+01	0	0
585781	2.197000e+00	1.169622e+01	-3.204705e+01	0	0
587734	2.197000e+00	1.728326e+01	-1.143730e+00	0	0
589688	2.197000e+00	1.984182e+01	-1.595345e+00	0	0
591641	2.197000e+00	2.175515e+01	-2.472254e-01	0	0
593594	2.197000e+00	1.012076e+01	-3.420902e+00	0	0
595547	2.197000e+00	1.789398e+01	6.782503e+01	0	0
597500	2.197000e+00	4.472341e+01	1.023644e+01	0	0
599453	2.197000e+00	5.216020e+01	-1.408476e+00	0	0
601406	2.197000e+00	5.508831e+01	2.679170e+00	0	0
603359	2.197000e+00	5.844912e+01	-6.332206e+01	0	0
605313	2.197000e+00	6.824343e+01	-4.958145e+01	0	0
607266	2.197000e+00	6.384466e+01	-5.763512e+00	0	0
609219	2.197000e+00	6.109125e+01	4.417484e-01	0	0
611172	2.197000e+00	6.530871e+01	1.027642e+00	0	0
613125	2.197000e+00	6.771818e+01	-1.807322e+00	0	0
615078	2.197000e+00	8.170202e+01	6.488565e+01	0	0
617031	2.197000e+00	9.583822e+01	3.561797e+01	0	0
618984	2.197000e+00	1.133691e+02	5.861584e-01	0	0
620938	2.197000e+00	1.168943e+02	3.028400e+00	0	0
622891	2.197000e+00	1.095889e+02	-6.291325e+01	0	0
624844	2.197000e+00	1.098683e+02	-5.239382e+01	0	0
626797	2.197000e+00	1.093267e+02	-2.279876e+01	0	0
628750	2.197000e+00	1.368497e+02	1.124835e+00	0	0
630703	2.197000e+00	1.374583e+02	2.476113e+00	0	0
632656	2.197000e+00	1.385303e+02	2.182096e-01	0	0
634609	2.197000e+00	1.717624e+02	5.624622e+01	0	0
636563	2.197000e+00	1.813569e+02	7.187804e+01	0	0
638516	2.197000e+00	1.862489e+02	3.546694e+00	0	0
640469	2.196053e+00	2.041177e+02	5.450043e-01	0	0
642422	2.196947e+00	2.104627e+02	-2.117834e+01	0	0
644375	2.197000e+00	2.208292e+02	-6.857258e+01	0	0
646328	2.197000e+00	2.348399e+02	-5.277794e+01	0	0
648281	2.197000e+00	2.413861e+02	-1.123473e+00	0	0
650234	2.197000e+00	2.420862e+02	8.122172e-01	0	0
652188	2.196053e+00	2.626994e+02	4.363804e-01	0	0
654141	2.196000e+00	2.871142e+02	1.428488e+01	0	0
656094	2.196000e+00	2.860292e+02	7.534152e+01	0	0
658047	2.196000e+00	3.087058e+02	3.835115e+00	0	0
660000	2.196000e+00	3.244110e+02	-1.142788e+00	0	0
661953	2.196000e+00	3.414881e+02	3.269723e+00	0	0
663906	2.196000e+00	3.431687e+02	-7.366050e+01	0	0
665859	2.196000e+00	3.537419e+02	-3.054891e+01	0	0
667813	2.196000e+00	3.605865e+02	1.197914e-01	0	0
669766	2.196000e+00	3.758503e+02	3.164403e-01	0	0
671719	2.196000e+00	3.884009e+02	7.596756e-01	0	0
673672	2.196000e+00	3.961531e+02	-2.777108e+00	0	0
675625	2.196000e+00	4.101519e+02	7.322704e+01	0	0
677578	2.196000e+00	4.251151e+02	7.472166e+00	0	0
679531	2.196000e+00	4.432756e+02	-2.365231e+00	0	0
681484	2.196000e+00	4.567158e+02	1.380884e+00	0	0
683438	2.196000e+00	4.586509e+02	-7.257083e+01	0	0
685391	2.196000e+00	4.684062e+02	-4.611433e+01	0	0
687344	2.196000e+00	4.844942e+02	-8.177359e+00	0	0
689297	2.196000e+00	4.829622e+02	-1.289838e+00	0	0
691250	2.196000e+00	4.950039e+02	-3.174568e-01	0	0
693203	2.196000e+00	4.961644e+02	-3.141983e+00	0	0
695156	2.196000e+00	5.095258e+02	6.885549e+01	0	0
697109	2.196000e+00	5.130817e+02	2.880246e+01	0	0
699063	2.196000e+00	5.225760e+02	9.653004e-02	0	0
701016	2.196000e+00	5.124587e+02	2.429090e+00	0	0
702969	2.196000e+00	5.096227e+02	-6.684469e+01	0	0
704922	2.196000e+00	4.981815e+02	-5.413883e+01	0	0
706875	2.196000e+00	4.806942e+02	-2.307685e+01	0	0
708828	2.196000e+00	4.636791e+02	-3.335016e-01	0	0
710781	2.196000e+00	4.380267e+02	1.033315e+00	0	0
712734	2.196000e+00	4.173563e+02	-1.624001e+00	0	0
714688	2.196000e+00	3.929176e+02	6.549449e+01	0	0
716641	2.195050e+00	3.661465e+02	6.960117e+01	0	0
718594	2.195000e+00	3.486367e+02	4.134781e+00	0	0
720547	2.195000e+00	3.173818e+02	3.137309e+00	0	0
722500	2.195000e+00	2.809544e+02	-3.718801e+01	0	0
724453	2.195950e+00	2.474807e+02	-6.793369e+01	0	0
726406	2.195050e+00	2.223675e+02	-5.044448e+01	0	0
728359	2.195000e+00	1.851393e+02	2.100634e+00	0	0
730313	2.195950e+00	1.658780e+02	4.792591e+00	0	0
732266	2.195050e+00	1.391039e+02	5.265353e+00	0	0
734219	2.195000e+00	1.125859e+02	9.746663e+00	0	0
736172	2.195000e+00	1.013170e+02	7.743503e+01	0	0
738125	2.195000e+00	6.913091e+01	3.730788e+00	0	0
740078	2.195000e+00	5.653663e+01	-1.199590e+00	0	0
742031	2.195000e+00	5.608243e+01	3.167930e+00	0	0
743984	2.195000e+00	2.310874e+01	-7.412905e+01	0	0
745938	2.195000e+00	-1.913808e+00	-1.999771e+01	0	0
747891	2.195000e+00	-6.923381e+00	-7.174821e+00	0	0
749844	2.195000e+00	-2.944849e+01	-8.877031e+00	0	0
751797	2.195000e+00	-3.154661e+01	-8.485351e+00	0	0
753750	2.195000e+00	-4.376944e+01	1.000599e+01	0	0
755703	2.195000e+00	-5.301945e+01	6.588408e+01	0	0
757656	2.195000e+00	-5.322323e+01	6.561937e+00	0	0
759609	2.195000e+00	-2.648102e+01	-2.452654e+00	0	0
761563	2.195000e+00	-6.036280e+01	9.732500e-01	0	0
763516	2.195000e+00	-6.015653e+01	-6.452843e+01	0	0
765469	2.195000e+00	-5.682850e+01	-5.156295e+01	0	0
767422	2.195000e+00	-6.990780e+01	-1.308342e+01	0	0
769375	2.195000e+00	-8.323509e+01	5.530460e+00	0	0
771328	2.195000e+00	-9.047566e+01	7.350229e+00	0	0
773281	2.195000e+00	-9.612904e+01	4.394284e+00	0	0
775234	2.195000e+00	-9.498430e+01	7.141776e+01	0	0
777188	2.195000e+00	-8.034172e+01	2.604018e+01	0	0
779141	2.195000e+00	-7.858085e+01	1.952632e-01	0	0
781094	2.195000e+00	-7.911826e+01	2.173063e+00	0	0
783047	2.194048e+00	-8.040412e+01	-6.477343e+01	0	0
785000	2.194952e+00	-8.507506e+01	-5.541489e+01	0	0
786953	2.195000e+00	-8.393199e+01	-1.319717e+01	0	0
788906	2.195000e+00	-8.766217e+01	-8.058480e-01	0	0
790859	2.194048e+00	-1.013686e+02	-2.027956e+00	0	0
792813	2.194953e+00	-9.851237e+01	-5.638453e+00	0	0
794766	2.194047e+00	-9.827189e+01	6.046235e+01	0	0
796719	2.194000e+00	-8.742248e+01	6.346419e+01	0	0
798672	2.194000e+00	-7.842419e+01	6.559026e-01	0	0
800625	2.194000e+00	-7.706837e+01	2.095230e+00	0	0
802578	2.194000e+00	-8.251684e+01	-3.707955e+01	0	0
804531	2.194000e+00	-8.640026e+01	-6.966820e+01	0	0
806484	2.194000e+00	-9.201331e+01	-5.016136e+01	0	0
808438	2.194000e+00	-9.361745e+01	3.345204e+00	0	0
810391	2.194000e+00	-9.670778e+01	7.271855e+00	0	0
812344	2.194000e+00	-1.055387e+02	7.243269e+00	0	0
814297	2.194000e+00	-1.100691e+02	2.841986e+01	0	0
816250	2.194000e+00	-1.000377e+02	8.150890e+01	0	0
818203	2.194000e+00	-9.850767e+01	3.377855e+00	0	0
820156	2.194000e+00	-8.319009e+01	-1.156783e+00	0	0
822109	2.194000e+00	-7.826281e+01	2.921419e+00	0	0
824063	2.194000e+00	-7.629224e+01	-7.682742e+01	0	0
826016	2.194000e+00	-9.015382e+01	-3.254637e+01	0	0
827969	2.194000e+00	-8.856909e+01	-9.007442e+00	0	0
829922	2.194000e+00	-9.938249e+01	-9.155546e+00	0	0
831875	2.194000e+00	-9.502921e+01	-6.568021e+00	0	0
833828	2.194000e+00	-8.518576e+01	-3.258633e+00	0	0
835781	2.194000e+00	-8.168498e+01	6.453871e+01	0	0
837734	2.194000e+00	-8.353727e+01	6.579558e+00	0	0
839688	2.194000e+00	-7.518150e+01	-1.171628e+00	0	0
841641	2.194000e+00	-7.530588e+01	5.991775e+00	0	0
843594	2.194000e+00	-7.367605e+01	-5.501614e+01	0	0
845547	2.194000e+00	-5.555593e+01	-5.392241e+01	0	0
847500	2.194000e+00	-6.695415e+01	-1.080636e+01	0	0
849453	2.194000e+00	-7.641195e+01	4.521630e+00	0	0
851406	2.194000e+00	-7.289902e+01	3.260471e+00	0	0
853359	2.194000e+00	-7.200901e+01	-1.624898e+00	0	0
855313	2.194000e+00	-7.090135e+01	6.314456e+01	0	0
857266	2.193045e+00	-5.401928e+01	2.369771e+01	0	0
859219	2.193000e+00	-4.300899e+01	-3.486331e-02	0	0
861172	2.193000e+00	-4.786233e+01	2.024909e+00	0	0
863125	2.193000e+00	-5.722652e+01	-6.175832e+01	0	0
865078	2.193000e+00	-6.251508e+01	-5.290242e+01	0	0
867031	2.193000e+00	-7.112665e+01	-2.172747e+01	0	0
868984	2.193000e+00	-7.595001e+01	-2.598130e+00	0	0
870938	2.193000e+00	-8.366389e+01	-1.500689e+00	0	0
872891	2.193000e+00	-8.497673e+01	-3.020552e+00	0	0
874844	2.193000e+00	-6.877768e+01	6.100801e+01	0	0
876797	2.193000e+00	-5.862797e+01	6.671082e+01	0	0
878750	2.193000e+00	-6.100691e+01	5.774835e+00	0	0
880703	2.193000e+00	-4.689369e+01	5.105279e+00	0	0
882656	2.193000e+00	-5.676914e+01	-4.613045e+01	0	0
884609	2.193000e+00	-5.994323e+01	-6.428673e+01	0	0
886563	2.193000e+00	-6.905289e+01	-4.679865e+01	0	0
888516	2.193000e+00	-6.690988e+01	7.281613e+00	0	0
890469	2.193000e+00	-6.546748e+01	8.280277e+00	0	0
892422	2.193000e+00	-6.151912e+01	6.606752e+00	0	0
894375	2.193000e+00	-5.963111e+01	9.353532e+00	0	0
896328	2.193000e+00	-6.595955e+01	7.638539e+01	0	0
898281	2.193000e+00	-6.186320e+01	3.177293e+00	0	0
900234	2.193000e+00	-5.107566e+01	-1.019347e+00	0	0
902188	2.193000e+00	-4.869748e+01	-7.801594e-01	0	0
904141	2.193000e+00	-5.535404e+01	-8.450218e+01	0	0
906094	2.193000e+00	-5.329429e+01	-2.840091e+01	0	0
908047	2.193000e+00	-6.547652e+01	-1.037925e+01	0	0
910000	2.193000e+00	-6.727304e+01	-9.644678e+00	0	0
911953	2.193000e+00	-6.836500e+01	-6.496419e+00	0	0
913906	2.193000e+00	-6.778778e+01	-1.073120e+00	0	0
915859	2.193000e+00	-6.174248e+01	6.598347e+01	0	0
917813	2.193000e+00	-5.939691e+01	-2.615531e+00	0	0
919766	2.193000e+00	-5.623942e+01	-5.720988e+00	0	0
921719	2.192042e+00	-5.027187e+01	8.457730e-01	0	0
923672	2.192000e+00	-5.326111e+01	-6.791401e+01	0	0
925625	2.192958e+00	-5.118097e+01	-3.943537e+01	0	0
927578	2.192042e+00	-5.081995e+01	-4.065907e+00	0	0
929531	2.192958e+00	-6.917846e+01	1.089692e+00	0	0
931484	2.193000e+00	-7.156680e+01	1.356810e+00	0	0
933438	2.192042e+00	-7.242948e+01	-1.621890e+00	0	0
935391	2.192000e+00	-7.529857e+01	6.854487e+01	0	0
937344	2.192000e+00	-7.121879e+01	3.111018e+01	0	0
939297	2.192000e+00	-6.514365e+01	1.552074e-01	0	0
941250	2.192000e+00	-6.105533e+01	1.952630e+00	0	0
943203	2.192000e+00	-6.937605e+01	-6.762717e+01	0	0
945156	2.192000e+00	-6.762547e+01	-5.223767e+01	0	0
947109	2.192000e+00	-8.022601e+01	-1.007251e+01	0	0
949063	2.192000e+00	-8.324063e+01	4.267584e-01	0	0
951016	2.192000e+00	-6.399290e+01	1.058189e+00	0	0
952969	2.192000e+00	-7.860058e+01	-9.935637e-01	0	0
954922	2.192000e+00	-7.094875e+01	7.030550e+01	0	0
956875	2.192000e+00	-6.019156e+01	5.337839e+01	0	0
958828	2.192000e+00	-6.723482e+01	5.997794e+00	0	0
960781	2.192000e+00	-6.390974e+01	7.637279e+00	0	0
962734	2.192000e+00	-4.994769e+01	-5.103893e+01	0	0
964688	2.192000e+00	-6.541476e+01	-7.038551e+01	0	0
966641	2.192000e+00	-6.951740e+01	-4.124974e+01	0	0
968594	2.192000e+00	-7.484871e+01	7.280404e+00	0	0
970547	2.192000e+00	-7.372428e+01	8.989704e+00	0	0
972500	2.192000e+00	-8.167583e+01	7.796895e+00	0	0
974453	2.192000e+00	-9.522125e+01	2.972004e+01	0	0
976406	2.192000e+00	-6.855275e+01	8.627496e+01	0	0
978359	2.192000e+00	-7.428165e+01	3.124955e+00	0	0
980313	2.192000e+00	-5.921593e+01	-1.050322e+00	0	0
982266	2.192000e+00	-5.578038e+01	2.475377e+00	0	0
984219	2.192000e+00	-5.667118e+01	-8.295640e+01	0	0
986172	2.192000e+00	-7.255894e+01	-2.108570e+01	0	0
988125	2.192000e+00	-7.092212e+01	-1.121992e+01	0	0
990078	2.192000e+00	-7.562416e+01	-1.308042e+01	0	0
992031	2.192000e+00	-8.495965e+01	-1.266504e+01	0	0
993984	2.191040e+00	-8.139447e+01	1.462619e+01	0	0
995938	2.191961e+00	-8.271099e+01	6.798678e+01	0	0
997891	2.191039e+00	-6.977166e+01	1.509950e+00	0	0
999844	2.191000e+00	-6.280727e+01	-5.019107e+00	0	0
1001797	2.191000e+00	-7.450903e+01	-1.513418e+00	0	0
1003750	2.191000e+00	-7.711806e+01	-6.905110e+01	0	0
1005703	2.191000e+00	-7.458167e+01	-3.926302e+01	0	0
1007656	2.191000e+00	-7.989506e+01	3.463606e+00	0	0
1009609	2.191000e+00	-8.402930e+01	4.768666e+00	0	0
1011563	2.191000e+00	-8.500528e+01	4.717193e+00	0	0
1013516	2.191000e+00	-7.718120e+01	1.129511e+00	0	0
1015469	2.191000e+00	-7.392874e+01	7.101173e+01	0	0
1017422	2.191000e+00	-6.593247e+01	1.952489e+01	0	0
1019375	2.191000e+00	-6.228565e+01	-2.370495e-01	0	0
1021328	2.191000e+00	-6.244798e+01	2.264157e+00	0	0
1023281	2.191000e+00	-7.100713e+01	-6.834979e+01	0	0
1025234	2.191000e+00	-7.053095e+01	-5.857341e+01	0	0
1027188	2.191000e+00	-7.262518e+01	-1.992284e+01	0	0
1029141	2.191000e+00	-8.027994e+01	2.785582e+00	0	0
1031094	2.191000e+00	-8.711446e+01	3.878400e+00	0	0
1033047	2.191000e+00	-8.429746e+01	1.565804e+00	0	0
1035000	2.191000e+00	-8.916576e+01	7.335620e+01	0	0
1036953	2.191000e+00	-7.670559e+01	6.599421e+01	0	0
1038906	2.191000e+00	-5.859755e+01	2.317791e+00	0	0
1040859	2.191000e+00	-5.994541e+01	9.495953e-01	0	0
1042813	2.191000e+00	-5.732730e+01	-5.019850e+01	0	0
1044766	2.191000e+00	-6.495529e+01	-7.426172e+01	0	0
1046719	2.191000e+00	-5.425921e+01	-4.380828e+01	0	0
1048672	2.191000e+00	-6.377271e+01	-5.944550e-01	0	0
1050625	2.191000e+00	-6.755452e+01	6.460356e-01	0	0
1052578	2.191000e+00	-6.406851e+01	-3.017825e-01	0	0
1054531	2.191000e+00	-5.886670e+01	3.708752e+01	0	0
1056484	2.191000e+00	-2.089519e+01	7.780399e+01	0	0
1058438	2.191000e+00	1.676206e+01	2.224801e+00	0	0
1060391	2.191000e+00	4.992348e+01	-1.738845e+00	0	0
1062344	2.191000e+00	5.765733e+01	6.966488e-01	0	0
1064297	2.190037e+00	6.841911e+01	-7.641822e+01	0	0
1066250	2.190963e+00	8.453920e+01	-4.001918e+01	0	0
1068203	2.191000e+00	8.225006e+01	-2.588963e+00	0	0
1070156	2.191000e+00	5.970151e+01	-2.005416e+00	0	0
1072109	2.190037e+00	7.185263e+01	-1.669214e+00	0	0
1074063	2.190000e+00	7.045957e+01	5.610986e+00	0	0
1076016	2.190000e+00	6.831003e+01	6.861400e+01	0	0
1077969	2.190000e+00	9.301226e+01	1.340955e+00	0	0
1079922	2.190000e+00	1.077667e+02	-1.312946e+00	0	0
1081875	2.190000e+00	1.221343e+02	1.836281e+00	0	0
1083828	2.190000e+00	1.324047e+02	-6.492695e+01	0	0
1085781	2.190000e+00	1.294746e+02	-4.567342e+01	0	0
1087734	2.190000e+00	1.259513e+02	-1.077221e+00	0	0
1089688	2.190000e+00	1.335960e+02	3.649620e-01	0	0
1091641	2.190000e+00	1.194997e+02	6.519428e-01	0	0
1093594	2.190000e+00	1.528720e+02	-1.277958e+00	0	0
1095547	2.190000e+00	1.806102e+02	6.420020e+01	0	0
1097500	2.190000e+00	1.757933e+02	2.392670e+01	0	0
1099453	2.190000e+00	1.789558e+02	3.509102e-02	0	0
1101406	2.190000e+00	1.716283e+02	2.012217e+00	0	0
1103359	2.190000e+00	1.636870e+02	-6.240634e+01	0	0
1105313	2.190000e+00	1.435443e+02	-5.210842e+01	0	0
1107266	2.190000e+00	1.457977e+02	-8.644640e+00	0	0
1109219	2.190000e+00	1.330090e+02	1.362039e+00	0	0
1111172	2.190000e+00	1.250954e+02	2.550410e+00	0	0
1113125	2.190000e+00	1.309484e+02	1.649720e+00	0	0
1115078	2.190000e+00	1.365353e+02	6.729531e+01	0	0
1117031	2.190000e+00	1.180511e+02	5.290830e+01	0	0
1118984	2.190000e+00	1.068073e+02	3.420144e+00	0	0
1120938	2.190000e+00	8.906174e+01	3.227553e+00	0	0
1122891	2.190000e+00	5.562320e+01	-6.471994e+01	0	0
1124844	2.190000e+00	2.977429e+01	-6.747183e+01	0	0
1126797	2.190000e+00	8.719997e+00	-3.598258e+01	0	0
1128750	2.190000e+00	-7.517085e-01	5.540144e+00	0	0
1130703	2.190000e+00	-2.591785e+01	6.780711e+00	0	0
1132656	2.190000e+00	-4.726640e+01	4.866117e+00	0	0
1134609	2.190000e+00	-4.203232e+01	3.756276e+01	0	0
1136563	2.189034e+00	-4.812358e+01	7.707612e+01	0	0
1138516	2.189000e+00	-5.663818e+01	1.447223e+00	0	0
1140469	2.189000e+00	-5.522617e+01	-2.655357e+00	0	0
1142422	2.189000e+00	-5.564190e+01	-5.875983e-01	0	0
1144375	2.189000e+00	-6.947996e+01	-8.280955e+01	0	0
1146328	2.189000e+00	-8.697053e+01	-2.979046e+01	0	0
1148281	2.189000e+00	-8.819804e+01	-1.193433e+01	0	0
1150234	2.189000e+00	-1.099254e+02	-1.086214e+01	0	0
1152188	2.189000e+00	-1.051189e+02	-7.460044e+00	0	0
1154141	2.189000e+00	-1.133523e+02	6.623242e+00	0	0
1156094	2.189000e+00	-1.042308e+02	6.363244e+01	0	0
1158047	2.189000e+00	-1.011791e+02	-7.746479e-01	0	0
1160000	2.189000e+00	-9.258605e+01	-4.077618e-01	0	0
1161953	2.189000e+00	-9.912808e+01	6.276186e+00	0	0
1163906	2.189000e+00	-1.064676e+02	-5.492985e+01	0	0
1165859	2.189000e+00	-1.155488e+02	-3.267162e+01	0	0
1167813	2.189000e+00	-1.216343e+02	-5.725886e+00	0	0
1169766	2.189000e+00	-1.227645e+02	4.894699e+00	0	0
1171719	2.189000e+00	-1.280333e+02	4.325652e+00	0	0
1173672	2.189000e+00	-1.413344e+02	8.429718e-01	0	0
1175625	2.189000e+00	-1.360446e+02	6.224504e+01	0	0
1177578	2.189000e+00	-1.330522e+02	1.043820e+01	0	0
1179531	2.189000e+00	-1.330165e+02	-2.907529e-01	0	0
1181484	2.189000e+00	-1.253410e+02	2.182272e+00	0	0
1183438	2.189000e+00	-1.293045e+02	-5.976409e+01	0	0
1185391	2.189000e+00	-1.326515e+02	-4.686781e+01	0	0
1187344	2.189000e+00	-1.363625e+02	-1.589266e+01	0	0
1189297	2.189000e+00	-1.335215e+02	2.809651e+00	0	0
1191250	2.189000e+00	-1.420958e+02	3.236136e+00	0	0
1193203	2.189000e+00	-1.478025e+02	6.308249e-01	0	0
1195156	2.189000e+00	-1.455954e+02	6.390659e+01	0	0
1197109	2.189000e+00	-1.414845e+02	5.559652e+01	0	0
1199063	2.189000e+00	-1.267890e+02	2.937930e+00	0	0
1201016	2.189000e+00	-1.197024e+02	2.686699e+00	0	0
1202969	2.189000e+00	-1.351758e+02	-6.023205e+01	0	0
1204922	2.189000e+00	-1.355949e+02	-6.829347e+01	0	0
1206875	2.188032e+00	-1.284106e+02	-3.642836e+01	0	0
1208828	2.188968e+00	-1.348485e+02	-3.366893e-01	0	0
1210781	2.189000e+00	-1.653922e+02	1.152107e+00	0	0
1212734	2.188032e+00	-2.024260e+02	5.834044e-01	0	0
1214688	2.188000e+00	-2.285866e+02	3.406331e+01	0	0
1216641	2.188000e+00	-2.006835e+02	7.512423e+01	0	0
1218594	2.188000e+00	-1.732251e+02	2.096744e+00	0	0
1220547	2.188000e+00	-9.326695e+01	-5.934757e-01	0	0
1222500	2.188000e+00	-2.593913e+01	1.985046e+00	0	0
1224453	2.188000e+00	7.314782e+01	-7.393551e+01	0	0
1226406	2.188000e+00	1.524394e+02	-3.256101e+01	0	0
1228359	2.188000e+00	2.575931e+02	6.826766e-03	0	0
1230313	2.188000e+00	4.724581e+02	-4.248049e-02	0	0
1232266	2.188000e+00	7.553616e+02	-4.956803e-01	0	0
1234219	2.188000e+00	9.989299e+02	1.439364e+01	0	0
1236172	2.188000e+00	1.280986e+03	7.183164e+01	0	0
1238125	2.188000e+00	1.552525e+03	8.177065e-01	0	0
1240078	2.188000e+00	1.783753e+03	-1.806979e+00	0	0
1242031	2.188000e+00	1.886832e+03	7.869044e-01	0	0
1243984	2.188000e+00	1.809676e+03	-6.922921e+01	0	0
1245938	2.188000e+00	1.637811e+03	-3.411426e+01	0	0
1247891	2.188000e+00	1.327380e+03	-4.343370e-02	0	0
1249844	2.188000e+00	1.062676e+03	2.797741e-01	0	0
1251797	2.188000e+00	8.338965e+02	6.313167e-01	0	0
1253750	2.188000e+00	6.805239e+02	-1.096832e+00	0	0
1255703	2.188000e+00	4.303735e+02	6.504138e+01	0	0
1257656	2.188000e+00	7.834115e+01	1.810213e+01	0	0
1259609	2.188000e+00	-1.451452e+02	-5.903455e-02	0	0
1261563	2.188000e+00	-2.182092e+02	1.429363e+00	0	0
1263516	2.188000e+00	-2.354508e+02	-6.245166e+01	0	0
1265469	2.188000e+00	-2.077095e+02	-5.305135e+01	0	0
1267422	2.188000e+00	-1.940170e+02	-6.535881e+00	0	0
1269375	2.188000e+00	-1.707744e+02	3.182376e-01	0	0
1271328	2.188000e+00	-1.384970e+02	1.149306e+00	0	0
1273281	2.188000e+00	-1.178825e+02	2.772785e-01	0	0
1275234	2.188000e+00	-9.849951e+01	6.404680e+01	0	0
1277188	2.188000e+00	-6.827656e+01	5.988666e+01	0	0
1279141	2.187029e+00	-6.815873e+01	2.502737e+00	0	0
1281094	2.187000e+00	-3.785395e+01	2.155667e+00	0	0
1283047	2.187000e+00	-3.581781e+01	-6.375507e+01	0	0
1285000	2.187971e+00	-7.105892e+01	-6.333525e+01	0	0
1286953	2.187029e+00	-7.762613e+01	-4.406150e+01	0	0
1288906	2.187000e+00	-7.009397e+01	-5.805721e-01	0	0
1290859	2.187000e+00	-8.268770e+01	6.037531e-01	0	0
1292813	2.187000e+00	-8.960492e+01	-8.345680e-01	0	0
1294766	2.187000e+00	-6.685604e+01	5.784203e+01	0	0
1296719	2.187000e+00	-8.457099e+01	7.241526e+01	0	0
1298672	2.187000e+00	-7.066403e+01	-1.301604e-01	0	0
1300625	2.187000e+00	-6.549792e+01	-2.608206e+00	0	0
1302578	2.187000e+00	-6.690280e+01	-1.160272e-01	0	0
1304531	2.187000e+00	-7.686600e+01	-7.386313e+01	0	0
1306484	2.187000e+00	-6.570791e+01	-2.641085e+01	0	0
1308438	2.187000e+00	-8.418593e+01	1.881087e-01	0	0
1310391	2.187000e+00	-8.188761e+01	2.312861e-01	0	0
1312344	2.187000e+00	-8.516297e+01	5.984696e-01	0	0
1314297	2.187000e+00	-7.286340e+01	2.962686e+00	0	0
1316250	2.187000e+00	-3.963649e+01	7.258766e+01	0	0
1318203	2.187000e+00	-6.367235e+01	2.046748e+00	0	0
1320156	2.187000e+00	-5.060921e+01	-5.042750e-01	0	0
1322109	2.187000e+00	-4.570416e+01	1.965023e+00	0	0
1324063	2.187000e+00	-4.319149e+01	-6.789184e+01	0	0
1326016	2.187000e+00	-5.078100e+01	-3.903669e+01	0	0
1327969	2.187000e+00	-5.623464e+01	-1.352723e-01	0	0
1329922	2.187000e+00	-5.709925e+01	3.132270e-01	0	0
1331875	2.187000e+00	-5.393078e+01	5.951272e-01	0	0
1333828	2.187000e+00	-4.579477e+01	-9.563053e-01	0	0
1335781	2.187000e+00	-5.073662e+01	6.401154e+01	0	0
1337734	2.187000e+00	-4.325203e+01	1.239477e+01	0	0
1339688	2.187000e+00	-3.316323e+01	-1.159979e-01	0	0
1341641	2.187000e+00	-2.077520e+01	1.366289e+00	0	0
1343594	2.187000e+00	-2.775429e+01	-6.121838e+01	0	0
1345547	2.187000e+00	-2.869142e+01	-4.754548e+01	0	0
1347500	2.186027e+00	-2.811482e+01	-9.612460e+00	0	0
1349453	2.186973e+00	-1.772678e+01	1.814020e-01	0	0
1351406	2.187000e+00	-2.008279e+01	5.792338e-01	0	0
1353359	2.187000e+00	-2.247430e+01	-7.834188e-01	0	0
1355313	2.187000e+00	-2.283852e+01	6.171391e+01	0	0
1357266	2.186026e+00	-2.650743e+01	3.923585e+01	0	0
1359219	2.186000e+00	-1.009940e+01	4.892653e-01	0	0
1361172	2.186000e+00	2.551146e+00	1.121531e+00	0	0
1363125	2.186000e+00	3.633371e+00	-6.085334e+01	0	0
1365078	2.186000e+00	-2.547557e+00	-6.384813e+01	0	0
1367031	2.186000e+00	1.482164e+01	-3.170065e+01	0	0
1368984	2.186000e+00	1.071671e+01	-1.715223e-01	0	0
1370938	2.186000e+00	1.602200e+01	5.741168e-01	0	0
1372891	2.186000e+00	6.416075e+00	-4.184735e-01	0	0
1374844	2.186000e+00	1.209324e+01	5.103560e+01	0	0
1376797	2.186000e+00	2.343014e+01	6.850504e+01	0	0
1378750	2.186000e+00	2.618716e+01	1.513522e+00	0	0
1380703	2.186000e+00	3.304417e+01	-3.146231e-01	0	0
1382656	2.186000e+00	3.871471e+01	6.397531e-01	0	0
1384609	2.186000e+00	4.543044e+01	-6.793899e+01	0	0
1386563	2.186000e+00	3.494971e+01	-3.950602e+01	0	0
1388516	2.186000e+00	4.121977e+01	-1.208391e-01	0	0
1390469	2.186000e+00	4.798662e+01	3.397917e-01	0	0
1392422	2.186000e+00	5.405556e+01	4.783303e-01	0	0
1394375	2.186000e+00	4.996781e+01	6.065476e+00	0	0
1396328	2.186000e+00	5.850402e+01	7.011328e+01	0	0
1398281	2.186000e+00	4.974656e+01	1.808800e+00	0	0
1400234	2.186000e+00	7.353552e+01	-4.335536e-01	0	0
1402188	2.186000e+00	8.802285e+01	1.617486e+00	0	0
1404141	2.186000e+00	9.521462e+01	-6.882677e+01	0	0
1406094	2.186000e+00	9.424816e+01	-1.848745e+01	0	0
1408047	2.186000e+00	8.161790e+01	-5.845502e-01	0	0
1410000	2.186000e+00	9.309032e+01	-6.937238e-01	0	0
1411953	2.186000e+00	8.807029e+01	-5.811659e-03	0	0
1413906	2.186000e+00	8.833905e+01	-1.018552e+00	0	0
1415859	2.186000e+00	1.131840e+02	6.490456e+01	0	0
1417813	2.186000e+00	1.315028e+02	1.264127e+01	0	0
1419766	2.186000e+00	1.432747e+02	-8.328454e-02	0	0
1421719	2.186000e+00	1.471342e+02	1.219892e+00	0	0
1423672	2.186000e+00	1.420233e+02	-6.153030e+01	0	0
1425625	2.186000e+00	1.423668e+02	-5.686396e+01	0	0
1427578	2.185024e+00	1.530821e+02	-8.096312e+00	0	0
1429531	2.185976e+00	1.606139e+02	2.769102e-01	0	0
1431484	2.185024e+00	1.634302e+02	5.249235e-01	0	0
1433438	2.185000e+00	1.705174e+02	-6.377976e-01	0	0
1435391	2.185000e+00	1.928072e+02	6.164193e+01	0	0
1437344	2.185000e+00	2.042471e+02	4.208652e+01	0	0
1439297	2.185000e+00	2.080952e+02	5.197420e-01	0	0
1441250	2.185000e+00	2.256214e+02	1.171348e+00	0	0
1443203	2.185000e+00	2.380979e+02	-6.121604e+01	0	0
1445156	2.185000e+00	2.404774e+02	-6.156481e+01	0	0
1447109	2.185000e+00	2.402931e+02	-3.054737e+01	0	0
1449063	2.185000e+00	2.571945e+02	9.362654e-01	0	0
1451016	2.185000e+00	2.486754e+02	1.433898e+00	0	0
1452969	2.185000e+00	2.663269e+02	3.466624e-01	0	0
1454922	2.185000e+00	2.871603e+02	4.700149e+01	0	0
1456875	2.185000e+00	3.116568e+02	7.035577e+01	0	0
1458828	2.185000e+00	3.174732e+02	1.450375e+00	0	0
1460781	2.185000e+00	3.356737e+02	-2.945209e-01	0	0
1462734	2.185000e+00	3.528408e+02	1.449604e+00	0	0
1464688	2.185000e+00	3.581233e+02	-7.091283e+01	0	0
1466641	2.185000e+00	3.695907e+02	-4.176075e+01	0	0
1468594	2.185000e+00	3.729999e+02	-1.185347e-01	0	0
1470547	2.185000e+00	3.866562e+02	3.982650e-01	0	0
1472500	2.185000e+00	4.001775e+02	2.464608e-01	0	0
1474453	2.185000e+00	4.084734e+02	1.922780e+01	0	0
1476406	2.185000e+00	4.262574e+02	7.392153e+01	0	0
1478359	2.185000e+00	4.328076e+02	1.645389e+00	0	0
1480313	2.185000e+00	4.530230e+02	-3.501355e-01	0	0
1482266	2.185000e+00	4.710062e+02	1.509796e+00	0	0
1484219	2.185000e+00	4.752563e+02	-7.206553e+01	0	0
1486172	2.185000e+00	4.915068e+02	-2.358603e+01	0	0
1488125	2.185000e+00	4.930420e+02	2.072702e-01	0	0
1490078	2.185000e+00	5.024823e+02	1.728217e-01	0	0
1492031	2.185000e+00	4.990184e+02	5.835564e-01	0	0
1493984	2.185000e+00	5.155976e+02	-8.358926e-01	0	0
1495938	2.185000e+00	5.158997e+02	6.952578e+01	0	0
1497891	2.184021e+00	5.313369e+02	1.278254e+01	0	0
1499844	2.184000e+00	5.529522e+02	-8.560894e-02	0	0
1501797	2.184000e+00	5.554330e+02	1.219683e+00	0	0
1503750	2.184979e+00	5.497249e+02	-6.682683e+01	0	0
1505703	2.184021e+00	5.326717e+02	-5.389364e+01	0	0
1507656	2.184000e+00	5.286843e+02	-4.466093e+00	0	0
1509609	2.184000e+00	5.130632e+02	3.126122e-01	0	0
1511563	2.184000e+00	4.905090e+02	5.030802e-01	0	0
1513516	2.184000e+00	4.780392e+02	-6.170957e-01	0	0
1515469	2.184000e+00	4.571983e+02	6.716983e+01	0	0
1517422	2.184000e+00	4.216103e+02	4.411909e+01	0	0
1519375	2.184000e+00	4.044688e+02	4.688408e-01	0	0
1521328	2.184000e+00	3.831325e+02	1.030520e+00	0	0
1523281	2.184000e+00	3.487588e+02	-6.713697e+01	0	0
1525234	2.184000e+00	3.164127e+02	-6.058629e+01	0	0
1527188	2.184000e+00	2.920924e+02	-2.170273e+01	0	0
1529141	2.184000e+00	2.607602e+02	4.070342e-02	0	0
1531094	2.184000e+00	2.292229e+02	5.076057e-01	0	0
1533047	2.184000e+00	2.070281e+02	-4.895017e-01	0	0
1535000	2.184000e+00	1.700790e+02	6.528006e+01	0	0
1536953	2.184000e+00	1.468988e+02	7.387350e+01	0	0
1538906	2.184000e+00	1.317050e+02	1.203750e+00	0	0
1540859	2.184000e+00	1.101469e+02	-7.171119e-02	0	0
1542813	2.184000e+00	8.307201e+01	-1.034633e+01	0	0
1544766	2.184000e+00	6.264797e+01	-7.336804e+01	0	0
1546719	2.184000e+00	4.565992e+01	-4.814754e+01	0	0
1548672	2.184000e+00	2.998051e+01	-2.126233e-01	0	0
1550625	2.184000e+00	2.249560e+01	3.385896e-01	0	0
1552578	2.184000e+00	-1.217352e+00	3.183767e-01	0	0
1554531	2.184000e+00	-8.741141e+00	1.182604e+01	0	0
1556484	2.184000e+00	-3.744612e+00	7.500580e+01	0	0
1558438	2.184000e+00	-7.337712e+00	1.450704e+00	0	0
1560391	2.184000e+00	-1.351877e+01	-3.731946e-01	0	0
1562344	2.184000e+00	-2.380989e+01	1.289258e+00	0	0
1564297	2.184000e+00	-3.878653e+01	-7.245706e+01	0	0
1566250	2.184000e+00	-3.728416e+01	-1.723270e+01	0	0
1568203	2.184000e+00	-4.976791e+01	2.822039e-01	0	0
1570156	2.184000e+00	-5.612979e+01	1.435309e-01	0	0
1572109	2.184000e+00	-5.547258e+01	4.748431e-01	0	0
1574063	2.184000e+00	-6.851072e+01	-6.865875e-01	0	0
1576016	2.183019e+00	-5.363823e+01	6.556164e+01	0	0
1577969	2.183981e+00	-5.137002e+01	1.335485e+01	0	0
1579922	2.183019e+00	-4.538051e+01	-5.584719e-02	0	0
1581875	2.183000e+00	-5.598414e+01	9.260583e-01	0	0
1583828	2.183000e+00	-5.020331e+01	-6.137705e+01	0	0
1585781	2.183000e+00	-5.660237e+01	-5.693474e+01	0	0
1587734	2.183981e+00	-7.127510e+01	-5.218941e-01	0	0
1589688	2.183018e+00	-7.080579e+01	3.098220e-01	0	0
1591641	2.183000e+00	-8.042129e+01	3.595904e-01	0	0
1593594	2.183000e+00	-7.572530e+01	-5.276563e-01	0	0
1595547	2.183000e+00	-7.591177e+01	6.134704e+01	0	0
1597500	2.183000e+00	-6.712100e+01	3.544869e+01	0	0
1599453	2.183000e+00	-6.001285e+01	2.640653e-01	0	0
1601406	2.183000e+00	-6.502128e+01	8.683179e-01	0	0
1603359	2.183000e+00	-6.775937e+01	-6.240572e+01	0	0
1605313	2.183000e+00	-7.589636e+01	-4.616881e+01	0	0
1607266	2.183000e+00	-8.533368e+01	-2.374801e+01	0	0
1609219	2.183000e+00	-8.451404e+01	-1.003695e-01	0	0
1611172	2.183000e+00	-9.400370e+01	4.558000e-01	0	0
1613125	2.183000e+00	-9.713758e+01	-5.897232e-01	0	0
1615078	2.183000e+00	-1.012953e+02	7.020727e+01	0	0
1617031	2.183000e+00	-9.071374e+01	5.457396e+01	0	0
1618984	2.183000e+00	-7.989841e+01	1.135392e+00	0	0
1620938	2.183000e+00	-8.145689e+01	6.419458e-01	0	0
1622891	2.183000e+00	-7.473583e+01	-2.050979e+01	0	0
1624844	2.183000e+00	-8.637614e+01	-7.494614e+01	0	0
1626797	2.183000e+00	-9.343475e+01	-5.264259e+01	0	0
1628750	2.183000e+00	-1.083373e+02	-2.515628e-01	0	0
1630703	2.183000e+00	-1.028176e+02	2.206172e-01	0	0
1632656	2.183000e+00	-9.848986e+01	4.105575e-01	0	0
1634609	2.183000e+00	-9.918556e+01	-8.614042e-01	0	0
1636563	2.183000e+00	-9.546810e+01	7.800608e+01	0	0
1638516	2.183000e+00	-1.069046e+02	1.297571e+00	0	0
1640469	2.183000e+00	-7.751930e+01	-3.717279e-01	0	0
1642422	2.183000e+00	-8.455496e+01	1.151797e+00	0	0
1644375	2.183000e+00	-8.995301e+01	-7.571507e+01	0	0
1646328	2.183000e+00	-8.043339e+01	-2.107805e+01	0	0
1648281	2.183000e+00	-9.033759e+01	1.837624e-01	0	0
1650234	2.183000e+00	-8.730182e+01	-1.367809e+00	0	0
1652188	2.183000e+00	-9.246110e+01	-1.772675e+00	0	0
1654141	2.183000e+00	-8.357614e+01	-1.843173e+00	0	0
1656094	2.183000e+00	-8.803324e+01	6.838197e+01	0	0
1658047	2.182016e+00	-7.214558e+01	2.274289e+01	0	0
1660000	2.182000e+00	-6.119956e+01	-2.722495e-01	0	0
1661953	2.182000e+00	-6.211881e+01	7.704336e-01	0	0
1663906	2.182000e+00	-6.690492e+01	-6.611748e+01	0	0
1665859	2.182000e+00	-7.513772e+01	-4.826065e+01	0	0
1667813	2.182000e+00	-7.289368e+01	-3.353951e+00	0	0
1669766	2.182000e+00	-7.935911e+01	8.480030e-01	0	0
1671719	2.182000e+00	-7.770235e+01	1.393215e+00	0	0
1673672	2.182000e+00	-8.637286e+01	4.342324e-01	0	0
1675625	2.182000e+00	-6.466575e+01	6.683683e+01	0	0
1677578	2.182000e+00	-6.767576e+01	2.677476e+01	0	0
1679531	2.182000e+00	-7.188641e+01	-9.124962e-03	0	0
1681484	2.182000e+00	-6.854852e+01	6.148887e-01	0	0
1683438	2.182000e+00	-6.581183e+01	-6.590383e+01	0	0
1685391	2.182000e+00	-6.515580e+01	-5.196944e+01	0	0
1687344	2.182000e+00	-6.704695e+01	-2.254786e+01	0	0
1689297	2.182000e+00	-7.544904e+01	-4.609322e-01	0	0
1691250	2.182000e+00	-7.574342e+01	-1.122202e-01	0	0
1693203	2.182000e+00	-6.396803e+01	-8.498234e-01	0	0
1695156	2.182000e+00	-5.785036e+01	6.237527e+01	0	0
1697109	2.182000e+00	-6.577670e+01	6.702460e+01	0	0
1699063	2.182000e+00	-6.614564e+01	8.093791e-01	0	0
1701016	2.182000e+00	-5.365323e+01	1.454778e-01	0	0
1702969	2.182000e+00	-4.975263e+01	-2.040820e+01	0	0
1704922	2.182000e+00	-6.520722e+01	-6.753459e+01	0	0
1706875	2.182000e+00	-7.081753e+01	-5.606367e+01	0	0
1708828	2.182000e+00	-5.784747e+01	-5.662828e-01	0	0
1710781	2.182000e+00	-7.465644e+01	1.065644e-01	0	0
1712734	2.182000e+00	-7.165255e+01	-4.835745e-02	0	0
1714688	2.182000e+00	-6.932758e+01	2.421955e+01	0	0
1716641	2.182000e+00	-6.983715e+01	7.380745e+01	0	0
1718594	2.182000e+00	-6.853261e+01	9.243223e-01	0	0
1720547	2.182000e+00	-6.641777e+01	-3.100413e-01	0	0
1722500	2.182000e+00	-6.745379e+01	9.278842e-01	0	0
1724453	2.182000e+00	-7.766586e+01	-7.431898e+01	0	0
1726406	2.182000e+00	-8.291939e+01	-1.500973e+01	0	0
1728359	2.182000e+00	-7.733736e+01	9.761699e-02	0	0
1730313	2.182000e+00	-8.002899e+01	-5.901188e-01	0	0
1732266	2.182000e+00	-9.291420e+01	-5.518374e-01	0	0
1734219	2.182000e+00	-9.299632e+01	-1.425633e+00	0	0
1736172	2.182000e+00	-8.420965e+01	7.116720e+01	0	0
1738125	2.182000e+00	-7.951408e+01	8.750234e+00	0	0
1740078	2.181013e+00	-7.763634e+01	-2.002958e-01	0	0
1742031	2.181987e+00	-7.479611e+01	7.436346e-01	0	0
1743984	2.182000e+00	-7.749234e+01	-6.879773e+01	0	0
1745938	2.182000e+00	-7.670041e+01	-3.838217e+01	0	0
1747891	2.181013e+00	-8.145184e+01	-1.051671e-01	0	0
1749844	2.181987e+00	-8.950004e+01	9.418027e-02	0	0
1751797	2.182000e+00	-9.282430e+01	2.372518e-01	0	0
1753750	2.182000e+00	-9.551831e+01	-5.404192e-01	0	0
1755703	2.181013e+00	-8.615678e+01	6.721308e+01	0	0
1757656	2.181987e+00	-9.548339e+01	1.926316e+01	0	0
1759609	2.181013e+00	-7.870250e+01	-6.771124e-02	0	0
1761563	2.181000e+00	-8.079684e+01	6.206055e-01	0	0
1763516	2.181000e+00	-8.382896e+01	-6.667180e+01	0	0
1765469	2.181000e+00	-8.834979e+01	-4.803661e+01	0	0
1767422	2.181000e+00	-1.009309e+02	-2.314640e+01	0	0
1769375	2.181000e+00	-9.837285e+01	-1.021107e-01	0	0
1771328	2.181000e+00	-9.690746e+01	3.458512e-01	0	0
1773281	2.181000e+00	-9.994288e+01	1.667188e-01	0	0
1775234	2.181000e+00	-1.016121e+02	5.425281e+01	0	0
1777188	2.181000e+00	-9.238402e+01	6.948072e+01	0	0
1779141	2.181000e+00	-8.133484e+01	2.220113e+00	0	0
1781094	2.181000e+00	-7.884982e+01	2.002992e+00	0	0
1783047	2.181000e+00	-7.805534e+01	-3.048946e+01	0	0
1785000	2.181000e+00	-8.734152e+01	-6.755502e+01	0	0
1786953	2.181000e+00	-8.931412e+01	-4.705213e+01	0	0
1788906	2.181000e+00	-8.772818e+01	-2.362199e-01	0	0
1790859	2.181000e+00	-9.968399e+01	1.646163e-01	0	0
1792813	2.181000e+00	-9.504106e+01	-2.838673e-02	0	0
1794766	2.181000e+00	-1.037221e+02	2.678266e+01	0	0
1796719	2.181000e+00	-9.303621e+01	7.233850e+01	0	0
1798672	2.181000e+00	-8.233133e+01	7.025398e-01	0	0
1800625	2.181000e+00	-8.893136e+01	-7.870932e-01	0	0
1802578	2.181000e+00	-8.817796e+01	-7.884934e-01	0	0
1804531	2.181000e+00	-9.036109e+01	-7.380302e+01	0	0
1806484	2.181000e+00	-9.360828e+01	-2.342226e+01	0	0
1808438	2.181000e+00	-1.000164e+02	-2.370133e+00	0	0
1810391	2.181000e+00	-1.021708e+02	-1.981718e+00	0	0
1812344	2.181000e+00	-9.091368e+01	-1.353217e+00	0	0
1814297	2.181000e+00	-8.893993e+01	1.828734e-02	0	0
1816250	2.181000e+00	-9.381749e+01	6.840925e+01	0	0
1818203	2.181000e+00	-9.794322e+01	8.024585e+00	0	0
1820156	2.181000e+00	-8.544602e+01	-1.674259e-01	0	0
1822109	2.181000e+00	-8.992550e+01	5.477314e-01	0	0
1824063	2.181000e+00	-9.032414e+01	-6.733387e+01	0	0
1826016	2.181000e+00	-8.867380e+01	-4.776584e+01	0	0
1827969	2.181000e+00	-9.747702e+01	-7.637295e+00	0	0
1829922	2.181000e+00	-1.094741e+02	4.560648e-01	0	0
1831875	2.181000e+00	-1.078101e+02	1.049287e+00	0	0
1833828	2.181000e+00	-1.082541e+02	3.801561e-01	0	0
1835781	2.181000e+00	-1.068490e+02	6.802239e+01	0	0
1837734	2.181000e+00	-9.877627e+01	1.223541e+01	0	0
1839688	2.181000e+00	-1.014884e+02	2.206812e-01	0	0
1841641	2.181000e+00	-1.053246e+02	1.511768e+00	0	0
1843594	2.181000e+00	-9.934634e+01	-6.605394e+01	0	0
1845547	2.181000e+00	-1.017304e+02	-4.836071e+01	0	0
1847500	2.181000e+00	-1.061813e+02	-1.825973e+01	0	0
1849453	2.181000e+00	-9.357255e+01	3.097519e+00	0	0
1851406	2.181000e+00	-8.582276e+01	3.712603e+00	0	0
1853359	2.181000e+00	-8.138640e+01	3.471629e+00	0	0
1855313	2.181000e+00	-7.080326e+01	7.208602e+01	0	0
1857266	2.181000e+00	-6.138451e+01	7.056025e+01	0	0
1859219	2.181000e+00	-3.523836e+01	4.302952e+00	0	0
1861172	2.180009e+00	-7.844781e-01	3.521872e+00	0	0
1863125	2.180991e+00	1.090417e+01	-3.186289e+01	0	0
1865078	2.181000e+00	2.104043e+01	-7.077285e+01	0	0
1867031	2.180009e+00	2.845314e+01	-3.257358e+01	0	0
1868984	2.180991e+00	2.714213e+01	-7.482150e-02	0	0
1870938	2.181000e+00	2.586701e+01	1.316787e+00	0	0
1872891	2.181000e+00	3.034728e+01	2.846870e+00	0	0
1874844	2.181000e+00	3.087203e+01	1.413809e+01	0	0
1876797	2.181000e+00	3.595094e+01	7.892210e+01	0	0
1878750	2.181000e+00	5.906441e+01	8.724082e-01	0	0
1880703	2.180009e+00	8.345262e+01	-2.238777e+00	0	0
1882656	2.180991e+00	9.264905e+01	-2.608583e+00	0	0
1884609	2.180009e+00	9.045757e+01	-7.790727e+01	0	0
1886563	2.180992e+00	9.543597e+01	-2.428682e+01	0	0
1888516	2.181000e+00	9.742977e+01	-9.209913e+00	0	0
1890469	2.181000e+00	1.065960e+02	-1.054705e+01	0	0
1892422	2.181000e+00	1.061181e+02	-9.947740e+00	0	0
1894375	2.180008e+00	1.183841e+02	1.209210e+01	0	0
1896328	2.180000e+00	1.289789e+02	6.294713e+01	0	0
1898281	2.180000e+00	1.400143e+02	-5.871528e-01	0	0
1900234	2.180000e+00	1.404942e+02	-1.657244e+00	0	0
1902188	2.180000e+00	1.422918e+02	-1.634893e-01	0	0
1904141	2.180000e+00	1.418885e+02	-6.158983e+01	0	0
1906094	2.180000e+00	1.362385e+02	-3.464986e+01	0	0
1908047	2.180000e+00	1.324928e+02	-8.219839e+00	0	0
1910000	2.180000e+00	9.144061e+01	5.833832e+00	0	0
1911953	2.180000e+00	9.228774e+01	5.620262e+00	0	0
1913906	2.180000e+00	8.550798e+01	3.710965e+00	0	0
1915859	2.180000e+00	1.121140e+02	6.795754e+01	0	0
1917813	2.180000e+00	9.969831e+01	1.774883e+00	0	0
1919766	2.180000e+00	8.727643e+01	-1.228136e-01	0	0
1921719	2.180000e+00	6.475902e+01	1.322155e+00	0	0
1923672	2.180000e+00	3.318157e+01	-6.566501e+01	0	0
1925625	2.180000e+00	1.172192e+01	-4.625949e+01	0	0
1927578	2.180000e+00	-1.394313e+01	-2.345556e+01	0	0
1929531	2.180000e+00	-2.756498e+01	2.876224e+00	0	0
1931484	2.180000e+00	-4.139556e+01	2.057312e+00	0	0
1933438	2.180000e+00	-5.750660e+01	9.022553e-01	0	0
1935391	2.180000e+00	-7.727563e+01	6.874190e+01	0	0
1937344	2.180000e+00	-7.632357e+01	6.985844e+01	0	0
1939297	2.180000e+00	-8.782134e+01	1.813252e+00	0	0
1941250	2.180000e+00	-7.978434e+01	4.354833e+00	0	0
1943203	2.180000e+00	-9.617628e+01	-5.074713e+01	0	0
1945156	2.180000e+00	-1.141014e+02	-6.932324e+01	0	0
1947109	2.180000e+00	-1.222248e+02	-5.502652e+01	0	0
1949063	2.180000e+00	-1.258126e+02	2.672971e+00	0	0
1951016	2.180000e+00	-1.367340e+02	5.045803e+00	0	0
1952969	2.180000e+00	-1.443064e+02	5.502145e+00	0	0
1954922	2.180000e+00	-1.456125e+02	3.251428e+01	0	0
1956875	2.180000e+00	-1.490614e+02	8.085165e+01	0	0
1958828	2.180000e+00	-1.480316e+02	4.101830e-01	0	0
1960781	2.180000e+00	-1.427151e+02	-6.514091e-01	0	0
1962734	2.180000e+00	-1.358352e+02	-1.275146e+00	0	0
1964688	2.180000e+00	-1.349721e+02	-8.264678e+01	0	0
1966641	2.180000e+00	-1.381177e+02	-2.129443e+01	0	0
1968594	2.180000e+00	-1.363023e+02	-9.866931e+00	0	0
1970547	2.180000e+00	-1.431765e+02	-1.115542e+01	0	0
1972500	2.180000e+00	-1.490378e+02	-1.087247e+01	0	0
1974453	2.180000e+00	-1.558168e+02	-2.026762e+00	0	0
1976406	2.180000e+00	-1.507254e+02	6.756152e+01	0	0
1978359	2.180000e+00	-1.439480e+02	1.015102e+01	0	0
1980313	2.180000e+00	-1.361001e+02	-2.473363e+00	0	0
1982266	2.180000e+00	-1.320478e+02	-1.620114e+00	0	0
1984219	2.180000e+00	-1.419987e+02	-7.142693e+01	0	0
1986172	2.180000e+00	-1.437088e+02	-4.976879e+01	0	0
1988125	2.180000e+00	-1.662553e+02	1.427688e+00	0	0
1990078	2.180000e+00	-1.724348e+02	3.811903e+00	0	0
1992031	2.180000e+00	-1.661608e+02	5.675511e+00	0	0
1993984	2.180000e+00	-1.649943e+02	6.547122e+00	0	0
1995938	2.180000e+00	-1.563519e+02	7.532811e+01	0	0
1997891	2.180000e+00	-1.643053e+02	1.710395e+01	0	0
1999844	2.180000e+00	-1.551749e+02	4.578955e+00	0	0
2001797	2.180000e+00	-1.515238e+02	2.253021e+00	0	0
2003750	2.180000e+00	-1.515908e+02	-6.706150e+01	0	0
2005703	2.180000e+00	-1.591718e+02	-5.330061e+01	0	0
2007656	2.180000e+00	-1.547572e+02	-1.233449e+01	0	0
2009609	2.180000e+00	-1.587010e+02	2.212095e-02	0	0
2011563	2.180000e+00	-1.910098e+02	9.051886e-02	0	0
2013516	2.180000e+00	-2.304654e+02	-2.685572e+00	0	0
2015469	2.180000e+00	-2.563681e+02	6.059855e+01	0	0
2017422	2.180000e+00	-2.433135e+02	6.172116e+01	0	0
2019375	2.180000e+00	-2.141378e+02	-4.523767e+00	0	0
2021328	2.180000e+00	-1.351923e+02	-1.629028e+00	0	0
2023281	2.180000e+00	-7.190664e+01	-3.376517e+01	0	0
2025234	2.180000e+00	1.980858e+01	-6.924958e+01	0	0
2027188	2.180000e+00	1.072100e+02	-4.209044e+01	0	0
2029141	2.180000e+00	2.177348e+02	2.598899e+00	0	0
2031094	2.180000e+00	4.068305e+02	5.168096e+00	0	0
2033047	2.180000e+00	6.810530e+02	5.977418e+00	0	0
2035000	2.180997e+00	9.236745e+02	2.326504e+01	0	0
2036953	2.180003e+00	1.194317e+03	8.111410e+01	0	0
2038906	2.180000e+00	1.467177e+03	2.556669e-01	0	0
2040859	2.180000e+00	1.697035e+03	-4.895955e-02	0	0
2042813	2.180997e+00	1.807371e+03	2.092979e-01	0	0
2044766	2.181000e+00	1.701516e+03	-8.089713e+01	0	0
2046719	2.181000e+00	1.535961e+03	-4.588858e+01	0	0
2048672	2.181000e+00	1.227072e+03	-4.956859e+00	0	0
2050625	2.181000e+00	9.845350e+02	-4.214482e+00	0	0
2052578	2.181000e+00	7.594924e+02	-2.060684e+00	0	0
2054531	2.181000e+00	6.229785e+02	9.677652e+00	0	0
2056484	2.181000e+00	4.550004e+02	7.268634e+01	0	0
2058438	2.181000e+00	1.269549e+02	9.573060e-01	0	0
2060391	2.181000e+00	-9.691294e+01	-6.146380e-03	0	0
2062344	2.181000e+00	-2.049599e+02	2.116837e+00	0	0
2064297	2.181000e+00	-2.581153e+02	-6.700060e+01	0	0
2066250	2.181000e+00	-2.657765e+02	-4.274019e+01	0	0
2068203	2.181000e+00	-2.534765e+02	-7.882728e-01	0	0
2070156	2.181000e+00	-2.437784e+02	5.755945e-02	0	0
2072109	2.181000e+00	-2.069549e+02	8.237575e-02	0	0
2074063	2.181000e+00	-1.534232e+02	-2.545199e-02	0	0
2076016	2.181000e+00	-1.250311e+02	6.971129e+01	0	0
2077969	2.181000e+00	-9.041376e+01	1.905125e+01	0	0
2079922	2.181000e+00	-7.186456e+01	3.692949e-02	0	0
2081875	2.181000e+00	-8.855440e+01	1.357632e-01	0	0
2083828	2.181000e+00	-8.402633e+01	-7.035249e+01	0	0
2085781	2.181000e+00	-1.074846e+02	-3.979047e+01	0	0
2087734	2.181000e+00	-9.908427e+01	-2.128643e+01	0	0
2089688	2.181000e+00	-1.042648e+02	4.285469e-02	0	0
2091641	2.181000e+00	-1.114493e+02	7.657033e-02	0	0
2093594	2.181000e+00	-1.153513e+02	1.196491e-02	0	0
2095547	2.181000e+00	-1.151100e+02	7.243922e+01	0	0
2097500	2.181000e+00	-1.186413e+02	5.947774e+01	0	0
2099453	2.181000e+00	-1.036352e+02	8.917483e-02	0	0
2101406	2.181000e+00	-8.304056e+01	7.753935e-02	0	0
2103359	2.181000e+00	-8.872821e+01	-4.550965e+01	0	0
2105313	2.181000e+00	-1.009086e+02	-7.491799e+01	0	0
2107266	2.181000e+00	-1.011856e+02	-4.514631e+01	0	0
2109219	2.181000e+00	-1.001364e+02	5.202636e-02	0	0
2111172	2.181000e+00	-9.653562e+01	6.983086e-02	0	0
2113125	2.181000e+00	-9.299992e+01	5.777283e-02	0	0
2115078	2.181000e+00	-9.959839e+01	3.714283e+01	0	0
2117031	2.181000e+00	-8.723885e+01	7.785369e+01	0	0
2118984	2.181000e+00	-8.621041e+01	9.635921e-02	0	0
2120938	2.181000e+00	-7.982767e+01	6.769877e-02	0	0
2122891	2.181000e+00	-7.095836e+01	6.698760e-02	0	0
2124844	2.181000e+00	-7.943551e+01	-7.742098e+01	0	0
2126797	2.181000e+00	-8.844715e+01	-2.866460e+01	0	0
2128750	2.181000e+00	-8.584186e+01	6.955280e-02	0	0
2130703	2.182000e+00	-9.162949e+01	-1.837297e-02	0	0
2132656	2.181000e+00	-9.511650e+01	-3.590435e-02	0	0
2134609	2.182000e+00	-7.986024e+01	3.612927e+00	0	0
2136563	2.181000e+00	-7.944715e+01	7.306758e+01	0	0
2138516	2.181000e+00	-7.923640e+01	3.841663e-02	0	0
2140469	2.181000e+00	-6.978341e+01	8.865897e-02	0	0
2142422	2.181001e+00	-7.003388e+01	4.279507e-02	0	0
2144375	2.182000e+00	-7.185940e+01	-6.965262e+01	0	0
2146328	2.182000e+00	-6.181389e+01	-1.875355e+01	0	0
2148281	2.182000e+00	-6.594645e+01	-4.709926e+00	0	0
2150234	2.182000e+00	-8.370051e+01	7.928561e-02	0	0
2152188	2.182000e+00	-7.194102e+01	6.116569e-02	0	0
2154141	2.182000e+00	-5.844644e+01	1.281466e-01	0	0
2156094	2.182000e+00	-5.961905e+01	6.592078e+01	0	0
2158047	2.182000e+00	-5.527712e+01	1.321203e+01	0	0
2160000	2.182000e+00	-4.228006e+01	9.285877e-02	0	0
2161953	2.182000e+00	-5.347454e+01	3.736203e-02	0	0
2163906	2.182000e+00	-2.743430e+01	-6.344778e+01	0	0
2165859	2.182000e+00	-3.981051e+01	-5.349145e+01	0	0
2167813	2.182000e+00	-4.029728e+01	-1.064270e+01	0	0
2169766	2.182000e+00	-4.971250e+01	8.706031e-02	0	0
2171719	2.182000e+00	-4.648051e+01	7.366430e-01	0	0
2173672	2.182000e+00	-3.808703e+01	9.938519e-01	0	0
2175625	2.182000e+00	-4.912337e+01	6.314056e+01	0	0
2177578	2.182000e+00	-2.191617e+01	6.032562e+01	0	0
2179531	2.182000e+00	-2.876947e+01	1.672362e+00	0	0
2181484	2.182000e+00	-2.345403e+01	1.142698e+00	0	0
2183438	2.182000e+00	-3.436043e+01	-6.278661e+01	0	0
2185391	2.182000e+00	-2.873606e+01	-5.692192e+01	0	0
2187344	2.182000e+00	-2.822349e+01	-4.546232e+01	0	0
2189297	2.182000e+00	-3.046733e+01	3.751587e+00	0	0
2191250	2.182000e+00	-2.729047e+01	3.300135e+00	0	0
2193203	2.182000e+00	-1.278210e+01	1.759877e+00	0	0
2195156	2.182000e+00	-1.102965e+01	4.518739e+01	0	0
2197109	2.182002e+00	2.108768e+00	7.146714e+01	0	0
2199063	2.183000e+00	7.016070e+00	-1.259055e+00	0	0
2201016	2.183000e+00	1.538201e+01	-1.993612e+00	0	0
2202969	2.183000e+00	3.837972e+01	-5.222217e+00	0	0
2204922	2.183000e+00	2.940321e+01	-8.062911e+01	0	0
2206875	2.183000e+00	2.401935e+01	-3.669820e+01	0	0
2208828	2.183000e+00	2.781228e+01	-9.299767e+00	0	0
2210781	2.183000e+00	2.037028e+01	-6.943237e+00	0	0
2212734	2.183000e+00	2.086523e+01	-3.174463e+00	0	0
2214688	2.183000e+00	3.810464e+01	2.251736e+00	0	0
2216641	2.183000e+00	4.261969e+01	6.544524e+01	0	0
2218594	2.183000e+00	5.910214e+01	-8.670016e-01	0	0
2220547	2.183000e+00	7.431075e+01	2.923155e+00	0	0
2222500	2.183000e+00	6.861427e+01	5.978058e+00	0	0
2224453	2.183000e+00	6.302869e+01	-5.807653e+01	0	0
2226406	2.183000e+00	6.666472e+01	-3.136671e+01	0	0
2228359	2.183000e+00	6.577580e+01	-2.941037e+00	0	0
2230313	2.183000e+00	7.617276e+01	2.424780e+00	0	0
2232266	2.183000e+00	8.862187e+01	5.206529e-02	0	0
2234219	2.183000e+00	9.498978e+01	2.726758e-01	0	0
2236172	2.183000e+00	1.106923e+02	6.730150e+01	0	0
2238125	2.183003e+00	1.278675e+02	2.271403e+01	0	0
2240078	2.184000e+00	1.491195e+02	-1.497839e+00	0	0
2242031	2.184000e+00	1.663856e+02	-3.952928e+00	0	0
2243984	2.184000e+00	1.555782e+02	-7.271738e+01	0	0
2245938	2.184000e+00	1.525000e+02	-4.030377e+01	0	0
2247891	2.184000e+00	1.597751e+02	-3.935438e+00	0	0
2249844	2.184000e+00	1.583237e+02	-2.161244e+00	0	0
2251797	2.184000e+00	1.648596e+02	2.440975e-01	0	0
2253750	2.184000e+00	1.753998e+02	3.339884e+00	0	0
2255703	2.184000e+00	2.048279e+02	7.216602e+01	0	0
2257656	2.184000e+00	2.263310e+02	4.167330e+01	0	0
2259609	2.184000e+00	2.317459e+02	5.558111e+00	0	0
2261563	2.184000e+00	2.475257e+02	5.596508e+00	0	0
2263516	2.184000e+00	2.624301e+02	-6.110287e+01	0	0
2265469	2.184000e+00	2.798058e+02	-5.801165e+01	0	0
2267422	2.184000e+00	2.784970e+02	-4.876199e+01	0	0
2269375	2.184000e+00	2.965103e+02	1.277316e+01	0	0
2271328	2.184004e+00	2.949034e+02	1.080156e+01	0	0
2273281	2.184996e+00	2.992645e+02	7.765784e+00	0	0
2275234	2.184004e+00	3.137620e+02	3.394881e+01	0	0
2277188	2.185000e+00	3.165305e+02	7.949203e+01	0	0
2279141	2.185000e+00	3.371890e+02	-1.749567e-01	0	0
2281094	2.185000e+00	3.458897e+02	2.725322e-01	0	0
2283047	2.185000e+00	3.625443e+02	-7.350936e-01	0	0
2285000	2.185000e+00	3.666905e+02	-8.177776e+01	0	0
2286953	2.185000e+00	3.693706e+02	-2.579397e+01	0	0
2288906	2.185000e+00	3.868171e+02	-3.616424e+00	0	0
2290859	2.185000e+00	4.078885e+02	-3.221637e+00	0	0
2292813	2.185000e+00	4.081999e+02	-3.572482e+00	0	0
2294766	2.185000e+00	4.067322e+02	1.687250e+01	0	0
2296719	2.185000e+00	4.109091e+02	6.659472e+01	0	0
2298672	2.185000e+00	4.206164e+02	-5.431707e+00	0	0
2300625	2.185000e+00	4.349234e+02	-4.668193e+00	0	0
2302578	2.185000e+00	4.457994e+02	-3.824715e+00	0	0
2304531	2.185000e+00	4.313239e+02	-7.028999e+01	0	0
2306484	2.185005e+00	4.175353e+02	-1.826339e+01	0	0
2308438	2.186000e+00	4.080402e+02	-7.425570e-01	0	0
2310391	2.186000e+00	3.889217e+02	1.584799e-01	0	0
2312344	2.186000e+00	3.821226e+02	5.830484e-02	0	0
2314297	2.186000e+00	3.584137e+02	4.188898e-01	0	0
2316250	2.186000e+00	3.459258e+02	6.479904e+01	0	0
2318203	2.186000e+00	3.309748e+02	1.650118e+01	0	0
2320156	2.186000e+00	3.137609e+02	2.121510e-01	0	0
2322109	2.186000e+00	2.954494e+02	-1.249220e-01	0	0
2324063	2.186000e+00	2.606205e+02	-6.435966e+01	0	0
2326016	2.186000e+00	2.294549e+02	-3.076023e+01	0	0
2327969	2.186000e+00	1.852698e+02	2.070852e-01	0	0
2329922	2.186006e+00	1.431353e+02	1.433908e-01	0	0
2331875	2.187000e+00	1.270095e+02	7.746180e-02	0	0
2333828	2.187000e+00	9.921307e+01	8.249152e-01	0	0
2335781	2.187000e+00	7.316139e+01	6.598559e+01	0	0
2337734	2.187000e+00	5.032729e+01	4.373445e+01	0	0
2339688	2.187000e+00	4.451117e+01	1.438722e+00	0	0
2341641	2.187000e+00	2.896273e+01	1.440971e+00	0	0
2343594	2.187000e+00	-5.027314e+00	-6.340211e+01	0	0
2345547	2.187000e+00	-6.672947e+00	-6.576569e+01	0	0
2347500	2.187000e+00	-2.156657e+01	-4.355775e+01	0	0
2349453	2.187000e+00	-3.474795e+01	1.730608e+00	0	0
2351406	2.187000e+00	-6.647576e+01	1.130399e+00	0	0
2353359	2.187000e+00	-8.530378e+01	8.756079e-01	0	0
2355313	2.187000e+00	-9.696217e+01	5.037173e+01	0	0
2357266	2.187000e+00	-9.348210e+01	7.337036e+01	0	0
2359219	2.187007e+00	-1.020871e+02	-2.906619e-01	0	0
2361172	2.188000e+00	-1.054489e+02	2.694696e-01	0	0
2363125	2.188000e+00	-1.106177e+02	-3.652843e-01	0	0
2365078	2.188000e+00	-1.333901e+02	-7.539763e+01	0	0
2367031	2.188000e+00	-1.242241e+02	-3.021873e+01	0	0
2368984	2.188000e+00	-1.531480e+02	6.959797e-02	0	0
2370938	2.188000e+00	-1.393631e+02	-8.599565e-03	0	0
2372891	2.188000e+00	-1.365849e+02	-5.602083e-02	0	0
2374844	2.188000e+00	-1.317501e+02	1.349368e+01	0	0
2376797	2.188000e+00	-1.570415e+02	7.470051e+01	0	0
2378750	2.188000e+00	-1.499732e+02	-5.425303e-01	0	0
2380703	2.188008e+00	-1.526918e+02	1.534767e-01	0	0
2382656	2.189000e+00	-1.798096e+02	-5.254888e-01	0	0
2384609	2.189000e+00	-1.579080e+02	-7.367504e+01	0	0
2386563	2.189000e+00	-1.747587e+02	-3.184360e+01	0	0
2388516	2.189000e+00	-1.818474e+02	-5.209401e-02	0	0
2390469	2.189000e+00	-1.859885e+02	-1.314812e-01	0	0
2392422	2.189000e+00	-1.797033e+02	-2.582288e-01	0	0
2394375	2.189000e+00	-1.804091e+02	2.514672e-01	0	0
2396328	2.189000e+00	-1.965138e+02	6.999651e+01	0	0
2398281	2.189000e+00	-1.951515e+02	2.662682e+01	0	0
2400234	2.189000e+00	-1.861223e+02	-1.543678e-01	0	0
2402188	2.189000e+00	-1.922409e+02	-6.028327e-01	0	0
2404141	2.189009e+00	-1.862673e+02	-6.857386e+01	0	0
2406094	2.190000e+00	-1.901420e+02	-4.258826e+01	0	0
2408047	2.190000e+00	-2.060187e+02	-7.253610e+00	0	0
2410000	2.190000e+00	-1.976100e+02	-2.243447e-01	0	0
2411953	2.190000e+00	-1.776630e+02	-3.766020e-01	0	0
2413906	2.190000e+00	-2.093777e+02	1.236408e-01	0	0
2415859	2.190000e+00	-2.073975e+02	6.620153e+01	0	0
2417813	2.190000e+00	-1.897481e+02	3.396241e+01	0	0
2419766	2.190000e+00	-1.848491e+02	-3.221321e-01	0	0
2421719	2.190000e+00	-1.675996e+02	-6.896821e-01	0	0
2423672	2.190000e+00	-1.797699e+02	-6.719514e+01	0	0
2425625	2.190009e+00	-1.889911e+02	-5.539382e+01	0	0
2427578	2.191000e+00	-1.886960e+02	-3.490202e+01	0	0
2429531	2.191000e+00	-2.066142e+02	-1.459367e-01	0	0
2431484	2.191000e+00	-1.710623e+02	-4.964579e-01	0	0
2433438	2.191000e+00	-1.838615e+02	5.261163e-03	0	0
2435391	2.191000e+00	-1.849693e+02	6.420993e+01	0	0
2437344	2.191000e+00	-1.870971e+02	7.000250e+01	0	0
2439297	2.191000e+00	-1.929536e+02	-8.313083e-01	0	0
2441250	2.191000e+00	-1.727302e+02	-1.466149e-01	0	0
2443203	2.191010e+00	-1.840058e+02	-9.269909e-01	0	0
2445156	2.191990e+00	-1.751944e+02	-7.356939e+01	0	0
2447109	2.191010e+00	-1.910335e+02	-3.476007e+01	0	0
2449063	2.192000e+00	-2.080187e+02	-2.913341e-01	0	0
2451016	2.192000e+00	-2.183866e+02	-4.315919e-01	0	0
2452969	2.192000e+00	-2.211287e+02	-4.717654e-01	0	0
2454922	2.192000e+00	-2.290784e+02	1.240589e+01	0	0
2456875	2.192000e+00	-1.956535e+02	7.326235e+01	0	0
2458828	2.192000e+00	-1.785882e+02	-1.036316e+00	0	0
2460781	2.192000e+00	-1.706161e+02	-1.200187e-01	0	0
2462734	2.192000e+00	-1.683611e+02	-1.073229e+00	0	0
2464688	2.192011e+00	-1.974724e+02	-7.275342e+01	0	0
2466641	2.193000e+00	-1.907257e+02	1.688501e-01	0	0
2468594	2.193000e+00	-1.815171e+02	-6.114041e-01	0	0
2470547	2.193000e+00	-2.025932e+02	-3.560491e-01	0	0
2472500	2.193000e+00	-1.910291e+02	-6.023632e-01	0	0
2474453	2.193000e+00	-2.023816e+02	1.249987e-01	0	0
2476406	2.193000e+00	-2.010257e+02	6.719544e+01	0	0
2478359	2.193000e+00	-2.018698e+02	8.569828e+00	0	0
2480313	2.193000e+00	-1.841428e+02	-2.338218e-01	0	0
2482266	2.193011e+00	-1.915826e+02	-9.372676e-01	0	0
2484219	2.194000e+00	-1.959408e+02	-6.730743e+01	0	0
2486172	2.194000e+00	-1.930899e+02	-5.470319e+01	0	0
2488125	2.194000e+00	-1.945215e+02	-1.686819e+01	0	0
2490078	2.194000e+00	-1.954738e+02	2.738896e-01	0	0
2492031	2.194000e+00	-1.996296e+02	4.840690e-01	0	0
2493984	2.194000e+00	-1.694592e+02	1.368592e+00	0	0
2495938	2.194000e+00	-1.639458e+02	6.907455e+01	0	0
2497891	2.194000e+00	-1.658065e+02	2.548030e+01	0	0
2499844	2.194000e+00	-1.578801e+02	-6.720141e-02	0	0
2501797	2.194012e+00	-1.700455e+02	-7.412314e-01	0	0
2503750	2.195000e+00	-1.768455e+02	-7.204815e+01	0	0
2505703	2.195000e+00	-1.950523e+02	-4.809834e+01	0	0
2507656	2.195000e+00	-2.270919e+02	-2.758859e+01	0	0
2509609	2.195000e+00	-1.880963e+02	2.583325e-03	0	0
2511563	2.195000e+00	-2.093750e+02	-3.941831e-01	0	0
2513516	2.195000e+00	-2.003126e+02	4.491476e-01	0	0
2515469	2.195012e+00	-1.921339e+02	7.819419e+01	0	0
2517422	2.196000e+00	-1.992959e+02	6.784916e+01	0	0
2519375	2.196000e+00	-2.083448e+02	-5.465134e-01	0	0
2521328	2.196000e+00	-2.227128e+02	-5.923615e-02	0	0
2523281	2.196000e+00	-2.219957e+02	-1.404644e+00	0	0
2525234	2.196000e+00	-2.539149e+02	-7.973831e+01	0	0
2527188	2.196000e+00	-2.480889e+02	-2.402832e+01	0	0
2529141	2.196000e+00	-2.474134e+02	2.119507e-01	0	0
2531094	2.196000e+00	-2.627249e+02	2.638948e-01	0	0
2533047	2.196013e+00	-2.482431e+02	1.083194e-01	0	0
2535000	2.197000e+00	-2.334327e+02	7.877384e+00	0	0
2536953	2.197000e+00	-2.028505e+02	7.868173e+01	0	0
2538906	2.197000e+00	-2.075671e+02	-5.519403e-01	0	0
2540859	2.197000e+00	-1.923947e+02	6.478840e-01	0	0
2542813	2.197000e+00	-1.806647e+02	-5.376444e-01	0	0
2544766	2.197000e+00	-2.179316e+02	-7.517158e+01	0	0
2546719	2.197013e+00	-2.496589e+02	-2.237042e+01	0	0
2548672	2.198000e+00	-2.835934e+02	2.817840e-01	0	0
2550625	2.198000e+00	-2.789755e+02	3.646023e-01	0	0
2552578	2.198000e+00	-2.856609e+02	3.338210e-01	0	0
2554531	2.198000e+00	-2.757930e+02	1.340098e+00	0	0
2556484	2.198000e+00	-2.624431e+02	6.820002e+01	0	0
2558438	2.198000e+00	-2.624972e+02	1.224201e+01	0	0
2560391	2.198000e+00	-2.721403e+02	1.024828e+00	0	0
2562344	2.198014e+00	-2.768121e+02	1.382369e-01	0	0
2564297	2.199000e+00	-2.609594e+02	-6.478638e+01	0	0
2566250	2.199000e+00	-2.603838e+02	-4.402679e+01	0	0
2568203	2.199000e+00	-2.729851e+02	5.533885e-01	0	0
2570156	2.199000e+00	-2.686580e+02	2.414469e-01	0	0
2572109	2.199000e+00	-2.559007e+02	1.226106e-01	0	0
2574063	2.199000e+00	-2.750045e+02	9.419387e-01	0	0
2576016	2.199000e+00	-2.624713e+02	6.490247e+01	0	0
2577969	2.199014e+00	-2.438022e+02	2.137305e+01	0	0
2579922	2.200000e+00	-2.630064e+02	3.523640e-01	0	0
2581875	2.200000e+00	-2.581884e+02	-1.642313e-01	0	0
2583828	2.200000e+00	-2.736555e+02	-5.644457e+01	0	0
2585781	2.200000e+00	-2.698366e+02	-6.495745e+01	0	0
2587734	2.200000e+00	-2.682142e+02	-1.906191e+01	0	0
2589688	2.200014e+00	-2.888175e+02	4.003373e-01	0	0
2591641	2.201000e+00	-3.022409e+02	9.867960e-02	0	0
2593594	2.201000e+00	-2.962681e+02	7.508664e-01	0	0
2595547	2.201000e+00	-2.718532e+02	7.097272e+01	0	0
2597500	2.201000e+00	-2.890912e+02	6.841868e+01	0	0
2599453	2.201000e+00	-2.783343e+02	-1.277793e+00	0	0
2601406	2.201000e+00	-2.491224e+02	-5.328374e-01	0	0
2603359	2.201000e+00	-2.443267e+02	-5.773813e+00	0	0
2605313	2.201015e+00	-2.408790e+02	-7.762566e+01	0	0
2607266	2.202000e+00	-2.399858e+02	-2.881121e+01	0	0
2609219	2.202000e+00	-2.234048e+02	-1.240910e+00	0	0
2611172	2.202000e+00	-2.229362e+02	-1.364687e+00	0	0
2613125	2.202000e+00	-2.221878e+02	-1.919535e+00	0	0
2615078	2.202000e+00	-1.952844e+02	1.295873e+01	0	0
2617031	2.202015e+00	-1.867299e+02	7.685105e+01	0	0
2618984	2.203000e+00	-1.898748e+02	-3.701861e+00	0	0
2620938	2.203000e+00	-1.957460e+02	-2.344658e+00	0	0
2622891	2.203000e+00	-1.594278e+02	-3.705037e+00	0	0
2624844	2.203000e+00	-1.611285e+02	-8.149245e+01	0	0
2626797	2.203000e+00	-1.686100e+02	-3.911165e+01	0	0
2628750	2.203000e+00	-1.425874e+02	-1.825423e+00	0	0
2630703	2.203000e+00	-1.481613e+02	-1.693901e+00	0	0
2632656	2.203015e+00	-1.398864e+02	-1.223411e+00	0	0
2634609	2.204000e+00	-1.378559e+02	8.257129e-01	0	0
2636563	2.204000e+00	-1.143971e+02	7.037056e+01	0	0
2638516	2.204000e+00	-8.595706e+01	8.731485e+00	0	0
2640469	2.204000e+00	-8.830083e+01	1.169568e+00	0	0
2642422	2.204000e+00	-6.685238e+01	1.895137e-01	0	0
2644375	2.204000e+00	-5.662559e+01	-6.246740e+01	0	0
2646328	2.204016e+00	-5.238271e+01	-4.700388e+01	0	0
2648281	2.205000e+00	-6.648101e+01	-1.585294e+01	0	0
2650234	2.205000e+00	-7.973953e+01	2.511416e+00	0	0
2652188	2.205000e+00	-8.021777e+01	3.235266e+00	0	0
2654141	2.205000e+00	-1.022517e+02	4.948023e+00	0	0
2656094	2.205000e+00	-9.749662e+01	6.228507e+01	0	0
2658047	2.205016e+00	-1.062208e+02	1.711417e+01	0	0
2660000	2.206000e+00	-1.001327e+02	4.865550e+00	0	0
2661953	2.206000e+00	-7.938037e+01	3.670920e+00	0	0
2663906	2.206000e+00	-9.554470e+01	-5.464816e+01	0	0
2665859	2.206000e+00	-1.241708e+02	-4.833759e+01	0	0
2667813	2.206000e+00	-1.150058e+02	-1.779977e+01	0	0
2669766	2.206000e+00	-1.405601e+02	3.009899e+00	0	0
2671719	2.206017e+00	-1.498177e+02	2.299769e+00	0	0
2673672	2.207000e+00	-1.929817e+02	2.674094e+00	0	0
2675625	2.207000e+00	-2.398751e+02	5.985639e+01	0	0
2677578	2.207000e+00	-2.487671e+02	6.541566e+01	0	0
2679531	2.207000e+00	-2.503075e+02	3.094057e-01	0	0
2681484	2.207017e+00	-2.733527e+02	1.276987e+00	0	0
2683438	2.208000e+00	-3.176010e+02	-6.558629e+00	0	0
2685391	2.208000e+00	-3.119453e+02	-6.959099e+01	0	0
2687344	2.208000e+00	-3.155770e+02	-5.349275e+01	0	0
2689297	2.208000e+00	-3.254029e+02	1.465656e+00	0	0
2691250	2.208000e+00	-3.290319e+02	8.627413e-01	0	0
2693203	2.208000e+00	-3.305651e+02	8.738502e-01	0	0
2695156	2.208017e+00	-3.538197e+02	1.342512e+01	0	0
2697109	2.209000e+00	-3.371291e+02	7.532876e+01	0	0
2699063	2.209000e+00	-3.217779e+02	-1.244248e-01	0	0
2701016	2.209000e+00	-3.201149e+02	1.453873e+00	0	0
2702969	2.209000e+00	-3.335489e+02	-1.062149e-01	0	0
2704922	2.209000e+00	-3.428052e+02	-7.477314e+01	0	0
2706875	2.209018e+00	-3.401226e+02	-3.663206e+01	0	0
2708828	2.210000e+00	-3.356570e+02	8.264375e-03	0	0
2710781	2.210000e+00	-3.374964e+02	-5.805039e-01	0	0
2712734	2.210000e+00	-3.480264e+02	-1.165031e+00	0	0
2714688	2.210000e+00	-3.519993e+02	-6.867344e-02	0	0
2716641	2.210000e+00	-3.570476e+02	7.163267e+01	0	0
2718594	2.210018e+00	-3.622795e+02	3.400373e+00	0	0
2720547	2.211000e+00	-3.558929e+02	-7.892922e-01	0	0
2722500	2.211000e+00	-3.632524e+02	-1.984493e+00	0	0
2724453	2.211000e+00	-3.713701e+02	-7.189246e+01	0	0
2726406	2.211000e+00	-3.686957e+02	-4.517108e+01	0	0
2728359	2.211018e+00	-3.627596e+02	-2.506304e+00	0	0
2730313	2.212000e+00	-3.732686e+02	-2.555876e-01	0	0
2732266	2.212000e+00	-3.756312e+02	-2.663311e-01	0	0
2734219	2.212000e+00	-4.090967e+02	1.088242e+00	0	0
2736172	2.212000e+00	-3.927458e+02	6.785056e+01	0	0
2738125	2.212000e+00	-3.764850e+02	2.891820e+01	0	0
2740078	2.212019e+00	-3.732962e+02	7.562116e-01	0	0
2742031	2.213000e+00	-3.616388e+02	-8.990025e-02	0	0
2743984	2.213000e+00	-3.653838e+02	-6.672599e+01	0	0
2745938	2.213000e+00	-3.644276e+02	-5.324201e+01	0	0
2747891	2.213000e+00	-3.729880e+02	-1.011037e+01	0	0
2749844	2.213000e+00	-3.728244e+02	7.037905e-01	0	0
2751797	2.213019e+00	-3.725352e+02	3.815418e-01	0	0
2753750	2.214000e+00	-3.494912e+02	1.412227e+00	0	0
2755703	2.214000e+00	-3.762813e+02	7.052115e+01	0	0
2757656	2.214000e+00	-3.919490e+02	6.497182e+01	0	0
2759609	2.214000e+00	-4.188205e+02	-1.054900e-01	0	0
2761563	2.214000e+00	-4.466603e+02	4.809991e-01	0	0
2763516	2.214020e+00	-4.724456e+02	-3.028110e+01	0	0
2765469	2.215000e+00	-4.722572e+02	-7.344108e+01	0	0
2767422	2.215000e+00	-4.364769e+02	-5.464310e+01	0	0
2769375	2.215000e+00	-3.495585e+02	1.030417e+00	0	0
2771328	2.215000e+00	-2.609239e+02	2.911423e-01	0	0
2773281	2.215020e+00	-1.108931e+02	3.558339e-01	0	0
2775234	2.216000e+00	3.768244e+01	1.688227e+01	0	0
2777188	2.216000e+00	2.240912e+02	7.833793e+01	0	0
2779141	2.216000e+00	4.541543e+02	-9.163844e-01	0	0
2781094	2.216000e+00	6.721164e+02	1.099920e+00	0	0
2783047	2.216000e+00	9.419662e+02	-6.552316e-01	0	0
2785000	2.216020e+00	1.156495e+03	-7.736173e+01	0	0
2786953	2.217000e+00	1.383918e+03	-2.740519e+01	0	0
2788906	2.217000e+00	1.560063e+03	1.089503e+00	0	0
2790859	2.217000e+00	1.525139e+03	7.189438e-01	0	0
2792813	2.217000e+00	1.410799e+03	6.353082e-01	0	0
2794766	2.217000e+00	1.142012e+03	2.513023e+00	0	0
2796719	2.217021e+00	8.535489e+02	7.245485e+01	0	0
2798672	2.218000e+00	7.120001e+02	2.032533e-01	0	0
2800625	2.218000e+00	5.307926e+02	2.004051e+00	0	0
2802578	2.218000e+00	3.675653e+02	4.652242e-01	0	0
2804531	2.218021e+00	1.189412e+02	-6.661488e+01	0	0
2806484	2.219000e+00	-6.240000e+01	-5.836854e+01	0	0
2808438	2.219000e+00	-1.732544e+02	-3.546157e+01	0	0
2810391	2.219000e+00	-3.136131e+02	1.935210e+00	0	0
2812344	2.219000e+00	-4.494339e+02	9.856494e-01	0	0
2814297	2.219000e+00	-4.970035e+02	2.419889e+00	0	0
2816250	2.219021e+00	-4.997074e+02	6.655887e+01	0	0
2818203	2.220000e+00	-5.037696e+02	1.787218e+01	0	0
2820156	2.220000e+00	-4.666930e+02	1.340358e+00	0	0
2822109	2.220000e+00	-4.492124e+02	2.979701e-01	0	0
2824063	2.220000e+00	-4.189548e+02	-6.453818e+01	0	0
2826016	2.220000e+00	-3.812640e+02	-5.973122e+01	0	0
2827969	2.220022e+00	-3.633761e+02	-2.829681e+01	0	0
2829922	2.221000e+00	-3.648686e+02	1.775662e+00	0	0
2831875	2.221000e+00	-3.527234e+02	7.902443e-01	0	0
2833828	2.221000e+00	-3.645178e+02	1.740745e+00	0	0
2835781	2.221022e+00	-3.342912e+02	6.945627e+01	0	0
2837734	2.222000e+00	-3.404334e+02	5.857904e+01	0	0
2839688	2.222000e+00	-3.298854e+02	-3.229827e-01	0	0
2841641	2.222000e+00	-3.058163e+02	8.637727e-02	0	0
2843594	2.222000e+00	-3.126922e+02	-3.826238e+01	0	0
2845547	2.222022e+00	-3.305772e+02	-7.263810e+01	0	0
2847500	2.223000e+00	-3.325646e+02	-3.979360e+01	0	0
2849453	2.223000e+00	-3.301245e+02	6.993325e-01	0	0
2851406	2.223000e+00	-3.254744e+02	1.686048e-01	0	0
2853359	2.223000e+00	-3.324912e+02	3.151705e-01	0	0
2855313	2.223000e+00	-3.628303e+02	2.259176e+01	0	0
2857266	2.223023e+00	-3.571569e+02	7.745626e+01	0	0
2859219	2.224000e+00	-3.505686e+02	-1.132787e+00	0	0
2861172	2.224000e+00	-3.328921e+02	2.080885e-01	0	0
2863125	2.224000e+00	-3.191764e+02	-2.471512e+00	0	0
2865078	2.224000e+00	-2.958494e+02	-7.865793e+01	0	0
2867031	2.224023e+00	-2.888529e+02	-2.702400e+01	0	0
2868984	2.225000e+00	-3.050888e+02	-1.807848e+00	0	0
2870938	2.225000e+00	-3.090815e+02	-1.696537e+00	0	0
2872891	2.225000e+00	-3.021665e+02	-1.804691e+00	0	0
2874844	2.225000e+00	-3.125011e+02	3.429565e-01	0	0
2876797	2.225023e+00	-3.137795e+02	6.906986e+01	0	0
2878750	2.226000e+00	-3.260954e+02	-1.024892e+00	0	0
2880703	2.226000e+00	-3.172796e+02	8.881236e-01	0	0
2882656	2.226000e+00	-3.115028e+02	-8.417025e-01	0	0
2884609	2.226000e+00	-2.934704e+02	-6.691262e+01	0	0
2886563	2.226024e+00	-2.778975e+02	-4.595060e+01	0	0
2888516	2.227000e+00	-2.677965e+02	8.005579e-01	0	0
2890469	2.227000e+00	-2.777490e+02	2.206247e-01	0	0
2892422	2.227000e+00	-2.738515e+02	3.171658e-03	0	0
2894375	2.227000e+00	-2.895464e+02	1.453303e+00	0	0
2896328	2.227024e+00	-2.988734e+02	6.650765e+01	0	0
2898281	2.228000e+00	-2.858238e+02	2.011785e+01	0	0
2900234	2.228000e+00	-3.087760e+02	1.762497e+00	0	0
2902188	2.228000e+00	-2.771097e+02	1.077907e+00	0	0
2904141	2.228000e+00	-2.624030e+02	-6.596958e+01	0	0
2906094	2.228024e+00	-2.588685e+02	-5.918548e+01	0	0
2908047	2.229000e+00	-2.837272e+02	-1.721044e+01	0	0
2910000	2.229000e+00	-2.878312e+02	3.465997e+00	0	0
2911953	2.229000e+00	-2.922106e+02	2.893963e+00	0	0
2913906	2.229024e+00	-2.740315e+02	4.434658e+00	0	0
2915859	2.230000e+00	-2.563005e+02	7.824260e+01	0	0
2917813	2.230000e+00	-2.544001e+02	5.448162e+01	0	0
2919766	2.230000e+00	-2.280487e+02	2.125320e+00	0	0
2921719	2.230000e+00	-2.579939e+02	1.568964e+00	0	0
2923672	2.230000e+00	-2.367371e+02	-5.289269e+01	0	0
2925625	2.230025e+00	-2.322929e+02	-7.933041e+01	0	0
2927578	2.231000e+00	-2.396587e+02	-6.236679e+01	0	0
2929531	2.231000e+00	-2.285090e+02	3.056874e+00	0	0
2931484	2.231000e+00	-2.533195e+02	2.573657e+00	0	0
2933438	2.231000e+00	-2.680369e+02	2.660907e+00	0	0
2935391	2.231025e+00	-2.597872e+02	1.807616e+01	0	0
2937344	2.232000e+00	-2.549532e+02	8.453368e+01	0	0
2939297	2.232000e+00	-2.275111e+02	-1.415764e+00	0	0
2941250	2.232000e+00	-2.246617e+02	1.113674e+00	0	0
2943203	2.232000e+00	-2.402732e+02	-1.389435e+00	0	0
2945156	2.232025e+00	-2.071402e+02	-8.268305e+01	0	0
2947109	2.233000e+00	-2.145476e+02	-2.923365e+01	0	0
2949063	2.233000e+00	-2.095623e+02	-4.008406e+00	0	0
2951016	2.233000e+00	-2.171354e+02	-5.800881e+00	0	0
2952969	2.233026e+00	-2.159826e+02	-6.147462e+00	0	0
2954922	2.234000e+00	-1.974009e+02	8.305798e+00	0	0
2956875	2.234000e+00	-1.755030e+02	7.099626e+01	0	0
2958828	2.234000e+00	-1.634590e+02	8.050205e+00	0	0
2960781	2.234000e+00	-1.841073e+02	-4.461358e+00	0	0
2962734	2.234025e+00	-1.692465e+02	-6.348339e+00	0	0
2964688	2.235000e+00	-1.646132e+02	-7.822176e+01	0	0
2966641	2.235000e+00	-1.686185e+02	-4.359483e+01	0	0
2968594	2.235000e+00	-1.583341e+02	-1.715676e+01	0	0
2970547	2.235000e+00	-1.484436e+02	-1.807339e+00	0	0
2972500	2.235026e+00	-1.508146e+02	-1.754859e+00	0	0
2974453	2.236000e+00	-1.501140e+02	5.499637e-01	0	0
2976406	2.236000e+00	-1.328173e+02	7.159853e+01	0	0
2978359	2.236000e+00	-9.685196e+01	2.054725e+01	0	0
2980313	2.236000e+00	-9.271714e+01	5.793699e-01	0	0
2982266	2.236026e+00	-9.122806e+01	-1.032635e+00	0	0
2984219	2.237000e+00	-6.904003e+01	-7.278757e+01	0	0
2986172	2.237000e+00	-7.128983e+01	-5.462783e+01	0	0
2988125	2.237000e+00	-8.740909e+01	-3.406711e+01	0	0
2990078	2.237026e+00	-1.019179e+02	9.012191e-01	0	0
2992031	2.238000e+00	-9.887592e+01	4.842549e-01	0	0
2993984	2.238000e+00	-7.968276e+01	3.116354e+00	0	0
2995938	2.238000e+00	-7.782975e+01	7.610962e+01	0	0
2997891	2.238000e+00	-5.508745e+01	4.500575e+01	0	0
2999844	2.238000e+00	-1.375913e+01	4.115714e+00	0	0
3001797	2.238027e+00	8.293441e-01	5.893345e+00	0	0
3003750	2.239000e+00	1.161047e+01	-5.042495e+01	0	0
3005703	2.239000e+00	1.870697e+01	-7.332909e+01	0	0
3007656	2.239000e+00	3.302155e+01	-6.220199e+01	0	0
3009609	2.239027e+00	3.251525e+01	8.810614e+00	0	0
3011563	2.240000e+00	3.864566e+01	7.827074e+00	0	0
3013516	2.240000e+00	3.238028e+01	7.426180e+00	0	0
3015469	2.240000e+00	8.170269e+01	4.442231e+01	0	0
3017422	2.240000e+00	8.506974e+01	8.886792e+01	0	0
3019375	2.240000e+00	9.301882e+01	-1.261182e+00	0	0
3021328	2.240027e+00	1.049225e+02	1.262365e+00	0	0
3023281	2.241000e+00	1.117106e+02	-1.648299e+00	0	0
3025234	2.241000e+00	1.154627e+02	-8.958415e+01	0	0
3027188	2.241028e+00	1.075929e+02	-3.957317e+01	0	0
3029141	2.242000e+00	1.111028e+02	-8.772257e+00	0	0
3031094	2.242000e+00	1.234239e+02	-1.009031e+01	0	0
3033047	2.242000e+00	1.348468e+02	-9.042641e+00	0	0
3035000	2.242000e+00	1.213235e+02	2.099918e+01	0	0
3036953	2.242028e+00	1.552162e+02	7.634368e+01	0	0
3038906	2.243000e+00	1.821595e+02	-3.478572e+00	0	0
3040859	2.243000e+00	2.135790e+02	-2.428190e+00	0	0
3042813	2.243000e+00	2.059177e+02	-4.017250e+00	0	0
3044766	2.243000e+00	1.733214e+02	-7.823521e+01	0	0
3046719	2.243028e+00	1.722953e+02	-4.034499e+01	0	0
3048672	2.244000e+00	1.788808e+02	-8.835337e+00	0	0
3050625	2.244000e+00	1.632670e+02	6.128419e+00	0	0
3052578	2.244000e+00	1.660803e+02	5.402905e+00	0	0
3054531	2.244000e+00	1.678031e+02	6.298796e+00	0	0
3056484	2.244028e+00	1.766566e+02	8.218119e+01	0	0
3058438	2.245000e+00	1.666148e+02	1.827660e+01	0	0
3060391	2.245000e+00	1.563091e+02	4.454172e-01	0	0
3062344	2.245000e+00	1.601310e+02	-1.813762e+00	0	0
3064297	2.245000e+00	1.471326e+02	-8.178180e+01	0	0
3066250	2.245029e+00	8.697976e+01	-5.021125e+01	0	0
3068203	2.246000e+00	7.112679e+01	-5.219036e+00	0	0
3070156	2.246000e+00	4.434727e+01	-1.809228e+00	0	0
3072109	2.246000e+00	3.334542e+01	-3.781645e+00	0	0
3074063	2.246029e+00	2.130960e+01	-2.699238e+00	0	0
3076016	2.247000e+00	1.677850e+01	7.878324e+01	0	0
3077969	2.247000e+00	-2.405332e+01	6.417488e+01	0	0
3079922	2.247000e+00	-4.699604e+01	-2.432079e+00	0	0
3081875	2.247029e+00	-6.446928e+01	1.439418e-01	0	0
3083828	2.248000e+00	-8.417881e+01	-5.106610e+01	0	0
3085781	2.248000e+00	-1.240927e+02	-8.452360e+01	0	0
3087734	2.248000e+00	-1.361736e+02	-4.473754e+01	0	0
3089688	2.248000e+00	-1.501106e+02	3.104745e+00	0	0
3091641	2.248030e+00	-1.987264e+02	4.690775e+00	0	0
3093594	2.249000e+00	-1.889329e+02	6.993449e+00	0	0
3095547	2.249000e+00	-2.223630e+02	5.334568e+01	0	0
3097500	2.249000e+00	-2.197983e+02	9.287112e+01	0	0
3099453	2.249000e+00	-2.197738e+02	3.388461e-01	0	0
3101406	2.249030e+00	-2.158586e+02	1.242340e+00	0	0
3103359	2.250000e+00	-2.290193e+02	-1.780499e+00	0	0
3105313	2.250000e+00	-2.494881e+02	-8.729558e+01	0	0
3107266	2.250000e+00	-2.722796e+02	-3.589203e+01	0	0
3109219	2.250030e+00	-2.666492e+02	-7.744099e+00	0	0
3111172	2.251000e+00	-2.980225e+02	-8.591722e+00	0	0
3113125	2.251000e+00	-2.916948e+02	-6.835609e+00	0	0
3115078	2.251000e+00	-2.942206e+02	1.613237e+01	0	0
3117031	2.251000e+00	-2.977293e+02	7.381622e+01	0	0
3118984	2.251030e+00	-2.872580e+02	-2.637507e+00	0	0
3120938	2.252000e+00	-2.781187e+02	1.388111e+00	0	0
3122891	2.252000e+00	-2.880524e+02	3.618300e+00	0	0
3124844	2.252000e+00	-2.840457e+02	-6.563729e+01	0	0
3126797	2.252031e+00	-2.925246e+02	-4.862348e+01	0	0
3128750	2.253000e+00	-2.986903e+02	-5.674590e+00	0	0
3130703	2.253000e+00	-2.878992e+02	6.039881e+00	0	0
3132656	2.253000e+00	-2.978806e+02	3.975597e+00	0	0
3134609	2.253000e+00	-2.896880e+02	4.366325e+00	0	0
3136563	2.253031e+00	-2.916422e+02	7.183842e+01	0	0
3138516	2.254000e+00	-3.059757e+02	1.399928e+01	0	0
3140469	2.254000e+00	-3.099693e+02	1.025897e+00	0	0
3142422	2.254000e+00	-3.037901e+02	-9.449933e-01	0	0
3144375	2.254031e+00	-3.123190e+02	-7.179147e+01	0	0
3146328	2.255000e+00	-3.158360e+02	-5.661721e+01	0	0
3148281	2.255000e+00	-2.964836e+02	-1.457502e+01	0	0
3150234	2.255000e+00	-3.138591e+02	7.457159e-01	0	0
3152188	2.255032e+00	-3.028089e+02	-9.548743e-01	0	0
3154141	2.256000e+00	-3.031183e+02	4.796893e-01	0	0
3156094	2.256000e+00	-3.108678e+02	7.257636e+01	0	0
3158047	2.256000e+00	-2.738976e+02	5.256076e+01	0	0
3160000	2.256000e+00	-2.902358e+02	2.366930e+00	0	0
3161953	2.256032e+00	-2.702060e+02	2.751106e+00	0	0
3163906	2.257000e+00	-2.630333e+02	-6.746916e+01	0	0
3165859	2.257000e+00	-3.006462e+02	-7.338356e+01	0	0
3167813	2.257000e+00	-3.009524e+02	-4.812333e+01	0	0
3169766	2.257032e+00	-2.955668e+02	6.827783e+00	0	0
3171719	2.258000e+00	-3.050108e+02	5.226979e+00	0	0
3173672	2.258000e+00	-2.765820e+02	5.215588e+00	0	0
3175625	2.258000e+00	-2.847192e+02	5.013528e+01	0	0
3177578	2.258000e+00	-2.774138e+02	8.363812e+01	0	0
3179531	2.258032e+00	-2.774118e+02	-1.611877e+00	0	0
3181484	2.259000e+00	-2.799904e+02	1.234595e+00	0	0
3183438	2.259000e+00	-2.674276e+02	-4.652222e+00	0	0
3185391	2.259000e+00	-2.747936e+02	-8.934287e+01	0	0
3187344	2.259033e+00	-2.981767e+02	-4.334995e+01	0	0
3189297	2.260000e+00	-2.845715e+02	-6.017257e+00	0	0
3191250	2.260000e+00	-2.809022e+02	-5.717298e+00	0	0
3193203	2.260000e+00	-2.786726e+02	-4.130769e+00	0	0
3195156	2.260033e+00	-2.658667e+02	4.246475e+00	0	0
3197109	2.260967e+00	-2.631758e+02	7.567787e+01	0	0
3199063	2.260033e+00	-2.678462e+02	-5.837314e+00	0	0
3201016	2.261000e+00	-2.590600e+02	-2.299634e+00	0	0
3202969	2.261000e+00	-2.627773e+02	-2.425710e+00	0	0
3204922	2.261000e+00	-2.648687e+02	-7.681611e+01	0	0
3206875	2.261033e+00	-2.501919e+02	-3.245045e+01	0	0
3208828	2.262000e+00	-2.399123e+02	1.575435e+00	0	0
3210781	2.262000e+00	-2.635864e+02	1.110232e+00	0	0
3212734	2.262000e+00	-2.669127e+02	-2.165570e-01	0	0
3214688	2.262033e+00	-2.524936e+02	2.193260e+00	0	0
3216641	2.263000e+00	-2.589687e+02	7.660847e+01	0	0
3218594	2.263000e+00	-2.564138e+02	2.737024e+01	0	0
3220547	2.263000e+00	-2.542898e+02	5.030577e-01	0	0
3222500	2.263033e+00	-2.549178e+02	-1.353061e+00	0	0
3224453	2.264000e+00	-2.484894e+02	-7.637016e+01	0	0
3226406	2.264000e+00	-2.704107e+02	-5.867028e+01	0	0
3228359	2.264000e+00	-2.596611e+02	-8.111218e+00	0	0
3230313	2.264000e+00	-2.511101e+02	3.088324e-01	0	0
3232266	2.264034e+00	-2.891698e+02	-3.268182e-01	0	0
3234219	2.265000e+00	-2.571999e+02	2.116789e+00	0	0
3236172	2.265000e+00	-2.658859e+02	7.728694e+01	0	0
3238125	2.265000e+00	-2.642495e+02	5.015100e+01	0	0
3240078	2.265034e+00	-2.579645e+02	1.829250e+00	0	0
3242031	2.266000e+00	-2.351072e+02	2.323427e-01	0	0
3243984	2.266000e+00	-2.344335e+02	-7.770552e+01	0	0
3245938	2.266000e+00	-2.408217e+02	-6.976454e+01	0	0
3247891	2.266000e+00	-2.454045e+02	-4.648387e+01	0	0
3249844	2.266034e+00	-2.549991e+02	3.774453e+00	0	0
3251797	2.267000e+00	-2.571456e+02	2.236799e+00	0	0
3253750	2.267000e+00	-2.615946e+02	2.635938e+00	0	0
3255703	2.267000e+00	-2.573728e+02	6.010968e+01	0	0
3257656	2.267034e+00	-2.409175e+02	8.520087e+01	0	0
3259609	2.268000e+00	-2.451295e+02	-1.740118e+00	0	0
3261563	2.268000e+00	-2.327884e+02	1.411273e+00	0	0
3263516	2.268000e+00	-2.486771e+02	-2.221073e+00	0	0
3265469	2.268000e+00	-2.495173e+02	-9.015647e+01	0	0
3267422	2.268035e+00	-2.459586e+02	-3.438772e+01	0	0
3269375	2.269000e+00	-2.450214e+02	-1.625177e+00	0	0
3271328	2.269000e+00	-2.266379e+02	-3.555524e-01	0	0
3273281	2.269000e+00	-2.028845e+02	-7.837597e-01	0	0
3275234	2.269035e+00	-1.737550e+02	1.344873e+01	0	0
3277188	2.270000e+00	-1.670371e+02	8.106833e+01	0	0
3279141	2.270000e+00	-1.570719e+02	-2.100564e+00	0	0
3281094	2.270000e+00	-1.562629e+02	1.654137e+00	0	0
3283047	2.270035e+00	-1.314755e+02	-4.330415e-01	0	0
3285000	2.271000e+00	-1.231989e+02	-7.805519e+01	0	0
3286953	2.271000e+00	-1.266496e+02	-4.657823e+01	0	0
3288906	2.271000e+00	-1.235397e+02	-1.854538e+00	0	0
3290859	2.271035e+00	-1.027876e+02	2.990334e-01	0	0
3292813	2.272000e+00	-1.134547e+02	-2.534043e-01	0	0
3294766	2.272000e+00	-1.017168e+02	2.373326e+00	0	0
3296719	2.272000e+00	-1.000456e+02	7.551318e+01	0	0
3298672	2.272000e+00	-7.949106e+01	1.747087e+01	0	0
3300625	2.272036e+00	-6.064883e+01	7.722343e-01	0	0
3302578	2.273000e+00	-3.120226e+01	-1.517197e+00	0	0
3304531	2.273000e+00	-4.449978e+01	-7.534232e+01	0	0
3306484	2.273000e+00	-5.237066e+01	-5.738539e+01	0	0
3308438	2.273000e+00	-1.606512e+01	-9.206078e+00	0	0
3310391	2.273036e+00	-4.965561e+01	7.264540e-01	0	0
3312344	2.274000e+00	-2.190683e+01	-3.456168e-02	0	0
3314297	2.274000e+00	-2.006347e+01	2.182679e+00	0	0
3316250	2.274036e+00	-1.966062e+01	7.554316e+01	0	0
3318203	2.274964e+00	-4.278935e+00	4.424550e+01	0	0
3320156	2.274036e+00	-1.690276e+01	5.909300e-02	0	0
3322109	2.275000e+00	6.213628e-01	-1.408163e+00	0	0
3324063	2.275000e+00	3.403065e+00	-7.686752e+01	0	0
3326016	2.275037e+00	-1.175117e+01	-6.416335e+01	0	0
3327969	2.276000e+00	-2.319382e+01	-3.976203e+01	0	0
3329922	2.276000e+00	-2.729615e+01	1.168562e+00	0	0
3331875	2.276000e+00	-3.725439e+01	-2.621244e-01	0	0
3333828	2.276000e+00	-5.098567e+01	1.536033e+00	0	0
3335781	2.276036e+00	-5.476063e+01	6.335961e+01	0	0
3337734	2.277000e+00	-7.007107e+01	8.134541e+01	0	0
3339688	2.277000e+00	-9.956912e+01	-1.744113e+00	0	0
3341641	2.277000e+00	-1.066935e+02	1.374138e+00	0	0
3343594	2.277037e+00	-1.345535e+02	-3.498263e+00	0	0
3345547	2.278000e+00	-1.549171e+02	-8.548314e+01	0	0
3347500	2.278000e+00	-1.758564e+02	-3.155408e+01	0	0
3349453	2.278000e+00	-1.831058e+02	5.996580e-01	0	0
3351406	2.278037e+00	-2.085000e+02	1.911933e-01	0	0
3353359	2.279000e+00	-2.331440e+02	2.884038e-01	0	0
3355313	2.279000e+00	-2.349445e+02	2.518017e+01	0	0
3357266	2.279000e+00	-2.280251e+02	8.427888e+01	0	0
3359219	2.279037e+00	-2.430054e+02	-2.107571e+00	0	0
3361172	2.280000e+00	-2.475581e+02	1.472492e+00	0	0
3363125	2.280000e+00	-2.569251e+02	-2.135845e+00	0	0
3365078	2.280000e+00	-2.486696e+02	-8.394296e+01	0	0
3367031	2.280037e+00	-2.448829e+02	-4.400165e+01	0	0
3368984	2.281000e+00	-2.595594e+02	9.226547e-01	0	0
3370938	2.281000e+00	-2.531963e+02	2.566892e-01	0	0
3372891	2.281000e+00	-2.891825e+02	-3.073066e-01	0	0
3374844	2.281038e+00	-2.725406e+02	2.625976e+00	0	0
3376797	2.282000e+00	-2.916143e+02	7.758939e+01	0	0
3378750	2.282000e+00	-2.708613e+02	1.165551e+01	0	0
3380703	2.282000e+00	-2.617687e+02	1.000630e+00	0	0
3382656	2.282000e+00	-2.614664e+02	-1.757310e+00	0	0
3384609	2.282038e+00	-2.732998e+02	-7.539321e+01	0	0
3386563	2.283000e+00	-2.876133e+02	-5.004414e+01	0	0
3388516	2.283000e+00	-2.968896e+02	-1.132204e+01	0	0
3390469	2.283000e+00	-2.955668e+02	5.287751e-01	0	0
3392422	2.283038e+00	-2.887228e+02	-2.881598e-01	0	0
3394375	2.284000e+00	-3.050735e+02	2.275731e+00	0	0
3396328	2.284000e+00	-2.782412e+02	7.470548e+01	0	0
3398281	2.284000e+00	-2.753547e+02	4.268542e+01	0	0
3400234	2.284000e+00	-2.922911e+02	6.864792e-02	0	0
3402188	2.284039e+00	-2.808083e+02	-1.494394e+00	0	0
3404141	2.285000e+00	-2.798231e+02	-7.691294e+01	0	0
3406094	2.285000e+00	-2.998159e+02	-7.201245e+01	0	0
3408047	2.285000e+00	-2.993442e+02	-4.613100e+01	0	0
3410000	2.285039e+00	-3.079539e+02	1.365010e+00	0	0
3411953	2.286000e+00	-2.912831e+02	-2.951940e-01	0	0
3413906	2.286000e+00	-2.881621e+02	1.485841e+00	0	0
3415859	2.286000e+00	-2.936885e+02	6.044253e+01	0	0
3417813	2.286039e+00	-3.064290e+02	8.501786e+01	0	0
3419766	2.287000e+00	-2.745641e+02	-1.995031e+00	0	0
3421719	2.287000e+00	-2.697634e+02	1.482304e+00	0	0
3423672	2.287000e+00	-2.678386e+02	-4.077451e+00	0	0
3425625	2.287039e+00	-2.777810e+02	-9.102715e+01	0	0
3427578	2.288000e+00	-2.907668e+02	-4.239357e+01	0	0
3429531	2.288000e+00	-3.178856e+02	8.956958e-01	0	0
3431484	2.288000e+00	-3.602880e+02	1.414948e-01	0	0
3433438	2.288000e+00	-3.654620e+02	1.832292e-01	0	0
3435391	2.288040e+00	-3.454514e+02	2.259206e+01	0	0
3437344	2.289000e+00	-3.090574e+02	8.791971e+01	0	0
3439297	2.289000e+00	-2.376594e+02	-6.528133e-01	0	0
3441250	2.289000e+00	-1.323987e+02	2.497261e+00	0	0
3443203	2.289040e+00	-3.939250e+01	-3.390159e+00	0	0
3445156	2.290000e+00	7.437289e+01	-8.460626e+01	0	0
3447109	2.290000e+00	2.423802e+02	-2.542842e+01	0	0
3449063	2.290000e+00	5.001255e+02	-1.017213e-01	0	0
3451016	2.290040e+00	7.783433e+02	9.019638e-02	0	0
3452969	2.291000e+00	1.041509e+03	-2.749421e+00	0	0
3454922	2.291000e+00	1.300140e+03	-4.171649e-01	0	0
3456875	2.291000e+00	1.567968e+03	7.314031e+01	0	0
3458828	2.291000e+00	1.786318e+03	1.857771e+01	0	0
3460781	2.291040e+00	1.830327e+03	7.879533e-01	0	0
3462734	2.292000e+00	1.721557e+03	-1.770415e+00	0	0
3464688	2.292000e+00	1.504536e+03	-7.538581e+01	0	0
3466641	2.292041e+00	1.135240e+03	-5.985860e+01	0	0
3468594	2.293000e+00	9.428053e+02	-2.914417e+01	0	0
3470547	2.293000e+00	7.013210e+02	3.988265e+00	0	0
3472500	2.293000e+00	5.038454e+02	2.202424e+00	0	0
3474453	2.293000e+00	2.670614e+02	4.437010e+00	0	0
3476406	2.293040e+00	-9.801527e+01	8.201489e+01	0	0
3478359	2.294000e+00	-2.394170e+02	4.103455e+01	0	0
3480313	2.294000e+00	-3.236876e+02	1.484701e+00	0	0
3482266	2.294000e+00	-3.731897e+02	-6.982177e-01	0	0
3484219	2.294041e+00	-3.764570e+02	-8.191776e+01	0	0
3486172	2.295000e+00	-3.431889e+02	-6.137556e+01	0	0
3488125	2.295000e+00	-3.394222e+02	-3.357751e+01	0	0
3490078	2.295000e+00	-3.164549e+02	1.159098e+00	0	0
3492031	2.295041e+00	-2.860382e+02	-6.540955e-01	0	0
3493984	2.296000e+00	-2.575245e+02	2.187300e+00	0	0
3495938	2.296000e+00	-2.309391e+02	8.222318e+01	0	0
3497891	2.296000e+00	-1.909682e+02	7.926714e+01	0	0
3499844	2.296000e+00	-1.948429e+02	-1.628056e+00	0	0
3501797	2.296041e+00	-1.915333e+02	8.877092e-01	0	0
3503750	2.297000e+00	-1.830286e+02	-1.643908e+01	0	0
3505703	2.297000e+00	-1.894162e+02	-8.285820e+01	0	0
3507656	2.297000e+00	-1.979806e+02	-5.798960e+01	0	0
3509609	2.297041e+00	-2.070615e+02	1.503271e+00	0	0
3511563	2.298000e+00	-2.349193e+02	-3.218182e-02	0	0
3513516	2.298000e+00	-2.380089e+02	2.508769e-01	0	0
3515469	2.298000e+00	-2.277978e+02	2.168047e+01	0	0
3517422	2.298000e+00	-2.296245e+02	8.087087e+01	0	0
3519375	2.298042e+00	-2.052773e+02	-2.672754e+00	0	0
3521328	2.299000e+00	-2.012660e+02	1.164298e+00	0	0
3523281	2.299000e+00	-2.053723e+02	-2.993984e+00	0	0
3525234	2.299042e+00	-2.136338e+02	-8.149605e+01	0	0
3527188	2.300000e+00	-2.109184e+02	-2.854186e+01	0	0
3529141	2.300000e+00	-2.032982e+02	5.546272e-03	0	0
3531094	2.300000e+00	-2.148420e+02	-7.203170e-02	0	0
3533047	2.300042e+00	-2.300871e+02	-7.463392e-01	0	0
3535000	2.301000e+00	-2.119696e+02	2.692147e+00	0	0
3536953	2.301000e+00	-1.925793e+02	7.732801e+01	0	0
3538906	2.301000e+00	-1.777990e+02	1.484730e+01	0	0
3540859	2.301042e+00	-1.756148e+02	9.675728e-01	0	0
3542813	2.302000e+00	-1.875285e+02	-1.990758e+00	0	0
3544766	2.302000e+00	-1.884347e+02	-7.730217e+01	0	0
3546719	2.302000e+00	-1.894802e+02	-5.785939e+01	0	0
3548672	2.302043e+00	-1.921745e+02	-1.350558e+01	0	0
3550625	2.303000e+00	-1.887658e+02	5.799269e-01	0	0
3552578	2.303000e+00	-1.800127e+02	-3.946011e-01	0	0
3554531	2.303000e+00	-1.728346e+02	2.638213e+00	0	0
3556484	2.303000e+00	-1.861666e+02	7.856755e+01	0	0
3558438	2.303043e+00	-1.871261e+02	4.379003e+01	0	0
3560391	2.304000e+00	-1.837373e+02	6.915577e-02	0	0
3562344	2.304000e+00	-1.705484e+02	-1.842609e+00	0	0
3564297	2.304000e+00	-1.719687e+02	-8.022832e+01	0	0
3566250	2.304043e+00	-1.714234e+02	-6.655303e+01	0	0
3568203	2.305000e+00	-1.658291e+02	-3.413507e+01	0	0
3570156	2.305000e+00	-1.598573e+02	1.187615e+00	0	0
3572109	2.305000e+00	-1.402509e+02	-5.427696e-01	0	0
3574063	2.305044e+00	-1.476415e+02	2.651890e+00	0	0
3576016	2.306000e+00	-1.396798e+02	8.523307e+01	0	0
3577969	2.306000e+00	-1.384150e+02	7.435244e+01	0	0
3579922	2.306000e+00	-1.341977e+02	-6.421690e-01	0	0
3581875	2.306000e+00	-1.172935e+02	1.733099e+00	0	0
3583828	2.306044e+00	-1.337506e+02	-2.110538e+01	0	0
3585781	2.307000e+00	-1.375493e+02	-8.418017e+01	0	0
3587734	2.307000e+00	-1.318063e+02	-4.965155e+01	0	0
3589688	2.307000e+00	-1.340972e+02	1.307479e+00	0	0
3591641	2.307044e+00	-1.348908e+02	7.093867e-03	0	0
3593594	2.308000e+00	-1.440649e+02	2.968473e-01	0	0
3595547	2.308000e+00	-1.469734e+02	2.455361e+01	0	0
3597500	2.308044e+00	-1.454347e+02	8.383364e+01	0	0
3599453	2.309000e+00	-1.090418e+02	-2.516830e+00	0	0
3601406	2.309000e+00	-8.026617e+01	1.735265e+00	0	0
3603359	2.309000e+00	-9.571788e+01	-2.801279e+00	0	0
3605313	2.309044e+00	-8.238684e+01	-8.244499e+01	0	0
3607266	2.310000e+00	-6.439915e+01	-1.972700e+01	0	0
3609219	2.310000e+00	-5.734860e+01	2.627119e-01	0	0
3611172	2.310000e+00	-5.289855e+01	-3.810559e-01	0	0
3613125	2.310044e+00	-7.976007e+01	-1.228130e+00	0	0
3615078	2.311000e+00	-7.211726e+01	1.291038e+01	0	0
3617031	2.311000e+00	-7.706615e+01	7.300968e+01	0	0
3618984	2.311000e+00	-6.715300e+01	9.148810e+00	0	0
3620938	2.311000e+00	-5.638011e+01	8.941908e-01	0	0
3622891	2.311045e+00	-4.889250e+01	-2.048888e+00	0	0
3624844	2.312000e+00	-4.984932e+01	-7.259160e+01	0	0
3626797	2.312000e+00	-6.086120e+01	-4.762543e+01	0	0
3628750	2.312000e+00	-4.654316e+01	-5.091161e+00	0	0
3630703	2.312045e+00	-4.956802e+01	3.731265e-01	0	0
3632656	2.313000e+00	-3.377198e+01	-3.365651e-01	0	0
3634609	2.313000e+00	-2.983488e+01	2.606004e+00	0	0
3636563	2.313000e+00	-2.684927e+00	7.240210e+01	0	0
3638516	2.313045e+00	-7.816066e+00	3.573279e+01	0	0
3640469	2.314000e+00	-1.946568e+01	2.535790e-01	0	0
3642422	2.314000e+00	8.085322e+00	-1.905278e+00	0	0
3644375	2.314000e+00	2.026896e+01	-7.340389e+01	0	0
3646328	2.314000e+00	1.814615e+01	-5.095869e+01	0	0
3648281	2.314045e+00	2.417644e+01	-2.568930e+01	0	0
3650234	2.315000e+00	3.863113e+01	1.055771e+00	0	0
3652188	2.315000e+00	5.189895e+01	-5.487021e-01	0	0
3654141	2.315000e+00	5.998592e+01	2.762889e+00	0	0
3656094	2.315046e+00	6.187944e+01	8.057402e+01	0	0
3658047	2.316000e+00	7.858020e+01	5.875321e+01	0	0
3660000	2.316000e+00	8.823143e+01	-4.570366e-01	0	0
3661953	2.316046e+00	9.274896e+01	9.222893e-01	0	0
3663906	2.317000e+00	1.082328e+02	-2.932755e+01	0	0
3665859	2.317000e+00	1.089281e+02	-8.413256e+01	0	0
3667813	2.317000e+00	1.270352e+02	-4.779577e+01	0	0
3669766	2.317000e+00	1.416552e+02	1.295203e+00	0	0
3671719	2.317046e+00	1.499087e+02	6.190609e-02	0	0
3673672	2.318000e+00	1.625804e+02	8.238944e-02	0	0
3675625	2.318000e+00	1.872492e+02	2.061134e+01	0	0
3677578	2.318000e+00	1.802294e+02	8.768974e+01	0	0
3679531	2.318046e+00	1.956552e+02	-2.829856e+00	0	0
3681484	2.319000e+00	2.249750e+02	1.904813e+00	0	0
3683438	2.319000e+00	2.462657e+02	-3.215992e+00	0	0
3685391	2.319000e+00	2.724015e+02	-8.796941e+01	0	0
3687344	2.319047e+00	2.795238e+02	-2.121542e+01	0	0
3689297	2.320000e+00	2.953747e+02	2.501179e-01	0	0
3691250	2.320000e+00	2.786820e+02	4.945577e-01	0	0
3693203	2.320000e+00	2.911259e+02	-6.066784e-01	0	0
3695156	2.320047e+00	3.027356e+02	3.561132e+00	0	0
3697109	2.321000e+00	3.182071e+02	8.178636e+01	0	0
3699063	2.321000e+00	3.406304e+02	-2.766948e+00	0	0
3701016	2.321000e+00	3.555650e+02	1.725277e+00	0	0
3702969	2.321047e+00	3.656745e+02	-2.521732e+00	0	0
3704922	2.322000e+00	3.747608e+02	-7.984211e+01	0	0
3706875	2.322000e+00	3.848171e+02	-5.759160e+01	0	0
3708828	2.322000e+00	3.791313e+02	-1.522328e+01	0	0
3710781	2.322047e+00	3.809758e+02	1.483123e+00	0	0
3712734	2.323000e+00	3.720489e+02	6.647572e-01	0	0
3714688	2.323000e+00	3.820611e+02	4.473746e+00	0	0
3716641	2.323000e+00	3.940005e+02	7.825286e+01	0	0
3718594	2.323048e+00	3.927528e+02	2.986167e+01	0	0
3720547	2.324000e+00	3.898580e+02	5.230076e-01	0	0
3722500	2.324000e+00	3.817802e+02	-2.152872e+00	0	0
3724453	2.324000e+00	3.723051e+02	-7.638100e+01	0	0
3726406	2.324047e+00	3.412307e+02	-4.975509e+01	0	0
3728359	2.325000e+00	3.229146e+02	-8.179677e+00	0	0
3730313	2.325000e+00	2.841444e+02	4.781131e-01	0	0
3732266	2.325000e+00	2.534413e+02	-4.091716e-01	0	0
3734219	2.325048e+00	2.307656e+02	1.009892e+00	0	0
3736172	2.326000e+00	1.990733e+02	7.523443e+01	0	0
3738125	2.326000e+00	1.791400e+02	6.438435e+01	0	0
3740078	2.326000e+00	1.573143e+02	-4.184954e+00	0	0
3742031	2.326048e+00	1.348456e+02	-4.188820e-02	0	0
3743984	2.327000e+00	9.261481e+01	-3.853370e+01	0	0
3745938	2.327000e+00	4.797749e+01	-8.013584e+01	0	0
3747891	2.327000e+00	4.070739e+01	-5.372996e+01	0	0
3749844	2.327048e+00	7.384460e+00	2.213518e+00	0	0
3751797	2.328000e+00	-3.546850e+00	3.491040e+00	0	0
3753750	2.328000e+00	-2.854176e+01	6.125848e+00	0	0
3755703	2.328000e+00	-6.119517e+01	3.807418e+01	0	0
3757656	2.328000e+00	-7.404219e+01	9.030258e+01	0	0
3759609	2.328048e+00	-8.565271e+01	-3.133769e-01	0	0
3761563	2.329000e+00	-8.537102e+01	1.823743e+00	0	0
3763516	2.329000e+00	-9.058677e+01	-3.336421e+00	0	0
3765469	2.329000e+00	-1.153798e+02	-8.528856e+01	0	0
3767422	2.329049e+00	-1.385529e+02	-1.920816e+01	0	0
3769375	2.330000e+00	-1.469606e+02	-4.786325e+00	0	0
3771328	2.330000e+00	-1.381719e+02	-7.120322e+00	0	0
3773281	2.330049e+00	-1.363102e+02	-8.292814e+00	0	0
3775234	2.331000e+00	-1.564743e+02	8.561793e+00	0	0
3777188	2.331000e+00	-1.512443e+02	7.408054e+01	0	0
3779141	2.331000e+00	-1.504581e+02	1.032795e+01	0	0
3781094	2.331049e+00	-1.533724e+02	-1.368579e+00	0	0
3783047	2.332000e+00	-1.671265e+02	-5.085896e+00	0	0
3785000	2.332000e+00	-1.691052e+02	-7.941519e+01	0	0
3786953	2.332000e+00	-1.772736e+02	-4.110606e+01	0	0
3788906	2.332049e+00	-1.697245e+02	-4.017808e+00	0	0
3790859	2.333000e+00	-1.818903e+02	4.343720e+00	0	0
3792813	2.333000e+00	-1.736040e+02	4.528334e+00	0	0
3794766	2.333000e+00	-1.593132e+02	8.693209e+00	0	0
3796719	2.333050e+00	-1.563104e+02	8.271028e+01	0	0
3798672	2.334000e+00	-1.545011e+02	3.005822e+01	0	0
3800625	2.334000e+00	-1.580581e+02	4.859580e-01	0	0
3802578	2.334000e+00	-1.818098e+02	-2.510012e+00	0	0
3804531	2.334050e+00	-1.579908e+02	-7.934158e+01	0	0
3806484	2.335000e+00	-1.798603e+02	-5.264658e+01	0	0
3808438	2.335000e+00	-2.053300e+02	-1.954233e+01	0	0
3810391	2.335000e+00	-2.041316e+02	-5.440760e-02	0	0
3812344	2.335050e+00	-2.102758e+02	-3.807365e+00	0	0
3814297	2.336000e+00	-1.985472e+02	-1.153731e+00	0	0
3816250	2.336000e+00	-2.029887e+02	7.744920e+01	0	0
3818203	2.336000e+00	-1.898106e+02	5.655354e+01	0	0
3820156	2.336050e+00	-1.757059e+02	-1.242584e+00	0	0
3822109	2.337000e+00	-1.580043e+02	3.448464e+00	0	0
3824063	2.337000e+00	-1.683416e+02	-4.418453e+01	0	0
3826016	2.337000e+00	-1.832844e+02	-8.046055e+01	0	0
3827969	2.337051e+00	-1.893808e+02	-4.102925e+01	0	0
3829922	2.338000e+00	-1.959912e+02	9.864124e+00	0	0
3831875	2.338000e+00	-2.156677e+02	1.006617e+01	0	0
3833828	2.338000e+00	-1.993737e+02	9.048600e+00	0	0
3835781	2.338000e+00	-2.017199e+02	2.007179e+01	0	0
3837734	2.338051e+00	-2.034554e+02	9.575569e+01	0	0
3839688	2.339000e+00	-1.952663e+02	-3.611302e+00	0	0
3841641	2.339000e+00	-1.885537e+02	2.091892e+00	0	0
3843594	2.339051e+00	-1.843528e+02	-3.915153e+00	0	0
3845547	2.340000e+00	-1.922198e+02	-9.540880e+01	0	0
3847500	2.340000e+00	-1.948979e+02	-3.239245e+01	0	0
3849453	2.340000e+00	-2.002106e+02	-8.992112e+00	0	0
3851406	2.340051e+00	-2.081725e+02	-9.123001e+00	0	0
3853359	2.341000e+00	-2.214247e+02	-7.459194e+00	0	0
3855313	2.341000e+00	-2.313161e+02	9.900275e+00	0	0
3857266	2.341000e+00	-2.138928e+02	7.500514e+01	0	0
3859219	2.341000e+00	-1.980894e+02	-8.636724e-01	0	0
3861172	2.341051e+00	-1.740235e+02	1.315373e-01	0	0
3863125	2.342000e+00	-1.903921e+02	-9.742191e-01	0	0
3865078	2.342051e+00	-1.945502e+02	-7.326802e+01	0	0
3867031	2.343000e+00	-1.898265e+02	-4.497673e+01	0	0
3868984	2.343000e+00	-1.839594e+02	-1.640430e+00	0	0
3870938	2.343000e+00	-1.923015e+02	1.518541e-01	0	0
3872891	2.343052e+00	-2.024954e+02	-6.017989e-01	0	0
3874844	2.344000e+00	-1.872995e+02	3.033360e+00	0	0
3876797	2.344000e+00	-2.012978e+02	7.329957e+01	0	0
3878750	2.344000e+00	-1.870292e+02	2.525107e+01	0	0
3880703	2.344000e+00	-1.788819e+02	5.276383e-01	0	0
3882656	2.344052e+00	-1.784869e+02	-2.556568e+00	0	0
3884609	2.345000e+00	-1.854552e+02	-7.491790e+01	0	0
3886563	2.345000e+00	-1.697014e+02	-5.061275e+01	0	0
3888516	2.345052e+00	-1.840704e+02	-2.507637e+01	0	0
3890469	2.346000e+00	-1.833695e+02	1.016707e+00	0	0
3892422	2.346000e+00	-1.807785e+02	-6.357427e-01	0	0
3894375	2.346000e+00	-1.879547e+02	3.671582e+00	0	0
3896328	2.346052e+00	-1.831823e+02	8.261031e+01	0	0
3898281	2.347000e+00	-1.821059e+02	5.455008e+01	0	0
3900234	2.347000e+00	-1.818848e+02	2.069708e+00	0	0
3902188	2.347000e+00	-1.639875e+02	2.729024e+00	0	0
3904141	2.347053e+00	-1.667435e+02	-4.786434e+01	0	0
3906094	2.348000e+00	-1.704721e+02	-7.936564e+01	0	0
3908047	2.348000e+00	-1.485149e+02	-5.137899e+01	0	0
3910000	2.348053e+00	-1.766374e+02	5.771920e+00	0	0
3911953	2.349000e+00	-1.780284e+02	2.765497e+00	0	0
3913906	2.349000e+00	-2.061554e+02	2.381804e+00	0	0
3915859	2.349000e+00	-1.829981e+02	3.473974e+01	0	0
3917813	2.349053e+00	-1.693634e+02	8.396039e+01	0	0
3919766	2.350000e+00	-1.589546e+02	-3.153254e+00	0	0
3921719	2.350000e+00	-1.447312e+02	1.876468e+00	0	0
3923672	2.350053e+00	-1.679591e+02	-3.677567e+00	0	0
3925625	2.351000e+00	-1.663908e+02	-8.476703e+01	0	0
3927578	2.351000e+00	-1.696791e+02	-2.514709e+01	0	0
3929531	2.351000e+00	-1.697555e+02	-4.480403e+00	0	0
3931484	2.351000e+00	-1.750263e+02	-5.939048e+00	0	0
3933438	2.351054e+00	-1.629114e+02	-5.108851e+00	0	0
3935391	2.352000e+00	-1.669311e+02	2.012676e+01	0	0
3937344	2.352000e+00	-1.712964e+02	6.783097e+01	0	0
3939297	2.352054e+00	-1.776574e+02	-3.897738e+00	0	0
3941250	2.353000e+00	-1.449835e+02	-2.184779e+00	0	0
3943203	2.353000e+00	-1.302350e+02	-4.287103e+00	0	0
3945156	2.353054e+00	-1.376559e+02	-7.169847e+01	0	0
3947109	2.354000e+00	-1.089095e+02	-4.186081e+01	0	0
3949063	2.354000e+00	-7.646712e+01	7.315993e-01	0	0
3951016	2.354000e+00	-5.218364e+01	5.256982e-02	0	0
3952969	2.354054e+00	-5.762701e+01	-5.824512e-01	0	0
3954922	2.355000e+00	-5.330476e+01	2.957993e+00	0	0
3956875	2.355000e+00	-3.013059e+01	7.093230e+01	0	0
3958828	2.355000e+00	-1.014969e+01	3.016517e+01	0	0
3960781	2.355054e+00	1.456338e+00	2.823163e-01	0	0
3962734	2.356000e+00	1.719137e+00	-2.328895e+00	0	0
3964688	2.356000e+00	5.319271e+00	-7.223935e+01	0	0
3966641	2.356055e+00	-7.740632e+00	-5.097260e+01	0	0
3968594	2.357000e+00	3.032100e+00	-2.501269e+01	0	0
3970547	2.357000e+00	3.755114e+00	2.381003e+00	0	0
3972500	2.357000e+00	3.066556e+01	1.328920e+00	0	0
3974453	2.357055e+00	3.756889e+01	6.293231e+00	0	0
3976406	2.358000e+00	4.319685e+01	7.956449e+01	0	0
3978359	2.358000e+00	5.645121e+01	4.531619e+01	0	0
3980313	2.358000e+00	5.023423e+01	3.915442e+00	0	0
3982266	2.358055e+00	5.065339e+01	2.386073e+00	0	0
3984219	2.359000e+00	5.445068e+01	-5.687008e+01	0	0
3986172	2.359000e+00	8.270437e+01	-7.550882e+01	0	0
3988125	2.359055e+00	1.030616e+02	-4.434926e+01	0	0
3990078	2.360000e+00	9.239324e+01	7.231391e+00	0	0
3992031	2.360000e+00	8.339273e+01	4.168639e+00	0	0
3993984	2.360000e+00	8.006583e+01	4.055895e+00	0	0
3995938	2.360055e+00	7.164426e+01	4.300173e+01	0	0
3997891	2.361000e+00	9.889763e+01	8.389963e+01	0	0
3999844	2.361000e+00	7.911779e+01	-3.205315e+00	0	0
4001797	2.361055e+00	7.366423e+01	1.958508e+00	0	0
4003750	2.362000e+00	7.005631e+01	-3.919060e+00	0	0
4005703	2.362000e+00	6.909981e+01	-8.994762e+01	0	0
4007656	2.362000e+00	5.293439e+01	-3.600677e+01	0	0
4009609	2.362055e+00	2.773227e+01	-5.779284e+00	0	0
4011563	2.363000e+00	5.281228e+00	-6.025824e+00	0	0
4013516	2.363000e+00	-1.563782e+01	-5.185102e+00	0	0
4015469	2.363056e+00	-5.090492e+01	1.128620e+01	0	0
4017422	2.364000e+00	-5.297015e+01	7.517003e+01	0	0
4019375	2.364000e+00	-8.058331e+01	-8.118459e+00	0	0
4021328	2.364000e+00	-9.340600e+01	-2.879689e+00	0	0
4023281	2.364056e+00	-9.899298e+01	-7.753712e+00	0	0
4025234	2.365000e+00	-1.324488e+02	-8.210089e+01	0	0
4027188	2.365000e+00	-1.446378e+02	-4.157625e+01	0	0
4029141	2.365056e+00	-1.505058e+02	-9.630291e+00	0	0
4031094	2.366000e+00	-1.762221e+02	-2.829800e-01	0	0
4033047	2.366000e+00	-1.749426e+02	-9.144912e-01	0	0
4035000	2.366000e+00	-1.790363e+02	3.602396e+00	0	0
4036953	2.366056e+00	-1.952494e+02	7.539824e+01	0	0
4038906	2.367000e+00	-1.794177e+02	1.426253e+01	0	0
4040859	2.367000e+00	-1.810244e+02	1.004290e+00	0	0
4042813	2.367057e+00	-1.742346e+02	-2.761067e+00	0	0
4044766	2.368000e+00	-2.096047e+02	-7.673674e+01	0	0
4046719	2.368000e+00	-2.044861e+02	-6.628784e+01	0	0
4048672	2.368000e+00	-2.119093e+02	-2.069439e+01	0	0
4050625	2.368057e+00	-2.317465e+02	4.349123e+00	0	0
4052578	2.369000e+00	-2.304993e+02	3.743702e+00	0	0
4054531	2.369000e+00	-2.314192e+02	8.496683e+00	0	0
4056484	2.369057e+00	-2.301870e+02	8.279651e+01	0	0
4058438	2.370000e+00	-2.217978e+02	5.787031e+01	0	0
4060391	2.370000e+00	-2.215746e+02	5.000625e+00	0	0
4062344	2.370000e+00	-2.116118e+02	3.128344e+00	0	0
4064297	2.370057e+00	-2.239264e+02	-6.354432e+01	0	0
4066250	2.371000e+00	-2.254018e+02	-7.362125e+01	0	0
4068203	2.371000e+00	-2.372450e+02	-4.293682e+01	0	0
4070156	2.371057e+00	-2.371029e+02	1.931680e+00	0	0
4072109	2.372000e+00	-2.446783e+02	-5.775899e-02	0	0
4074063	2.372000e+00	-2.466298e+02	1.420788e+00	0	0
4076016	2.372058e+00	-2.434239e+02	4.906708e+01	0	0
4077969	2.373000e+00	-2.154374e+02	7.981087e+01	0	0
4079922	2.373000e+00	-2.147118e+02	-4.907920e+00	0	0
4081875	2.373000e+00	-2.235761e+02	-1.358489e+00	0	0
4083828	2.373058e+00	-2.262760e+02	-8.612320e+00	0	0
4085781	2.374000e+00	-2.308676e+02	-9.046291e+01	0	0
4087734	2.374000e+00	-2.306844e+02	-2.802507e+01	0	0
4089688	2.374058e+00	-2.283799e+02	-9.577001e+00	0	0
4091641	2.375000e+00	-2.466356e+02	-8.769621e+00	0	0
4093594	2.375000e+00	-2.386902e+02	-6.219949e+00	0	0
4095547	2.375000e+00	-2.310747e+02	2.738713e+01	0	0
4097500	2.375058e+00	-2.271242e+02	7.231675e+01	0	0
4099453	2.376000e+00	-2.082273e+02	-6.745363e+00	0	0
4101406	2.376000e+00	-2.779508e+02	-9.290919e-01	0	0
4103359	2.376000e+00	-2.886777e+02	-5.007366e+00	0	0
4105313	2.376059e+00	-3.014943e+02	-7.870350e+01	0	0
4107266	2.377000e+00	-2.909241e+02	-4.380207e+01	0	0
4109219	2.377000e+00	-2.556447e+02	3.134634e+00	0	0
4111172	2.377059e+00	-1.776068e+02	3.160668e+00	0	0
4113125	2.378000e+00	-8.813106e+01	2.212323e+00	0	0
4115078	2.378000e+00	1.135573e+01	6.274500e+00	0	0
4117031	2.378058e+00	1.106163e+02	7.839103e+01	0	0
4118984	2.379000e+00	3.278800e+02	1.013048e+01	0	0
4120938	2.379000e+00	6.630175e+02	2.065160e+00	0	0
4122891	2.379000e+00	9.498334e+02	-1.112180e+00	0	0
4124844	2.379059e+00	1.219181e+03	-7.620897e+01	0	0
4126797	2.380000e+00	1.525074e+03	-6.710447e+01	0	0
4128750	2.380000e+00	1.782200e+03	-2.784465e+01	0	0
4130703	2.380059e+00	1.985234e+03	6.614469e+00	0	0
4132656	2.381000e+00	1.987647e+03	3.848188e+00	0	0
4134609	2.381000e+00	1.884452e+03	8.064672e+00	0	0
4136563	2.381059e+00	1.621165e+03	8.296039e+01	0	0
4138516	2.382000e+00	1.235225e+03	4.743637e+01	0	0
4140469	2.382000e+00	1.027014e+03	5.010679e+00	0	0
4142422	2.382000e+00	8.028206e+02	2.081691e+00	0	0
4144375	2.382059e+00	6.027654e+02	-7.081135e+01	0	0
4146328	2.383000e+00	2.465743e+02	-7.416161e+01	0	0
4148281	2.383000e+00	-1.338457e+02	-2.314020e+01	0	0
4150234	2.383000e+00	-2.652055e+02	3.825486e+00	0	0
4152188	2.383060e+00	-3.217789e+02	1.823885e+00	0	0
4154141	2.384000e+00	-3.369792e+02	2.583816e+00	0	0
4156094	2.384000e+00	-3.317827e+02	6.268841e+01	0	0
4158047	2.384060e+00	-3.337384e+02	8.290838e+01	0	0
4160000	2.385000e+00	-2.989271e+02	-2.591842e+00	0	0
4161953	2.385000e+00	-2.292924e+02	1.312039e+00	0	0
4163906	2.385060e+00	-1.903993e+02	-8.187274e+00	0	0
4165859	2.386000e+00	-1.629928e+02	-9.361808e+01	0	0
4167813	2.386000e+00	-1.442942e+02	-3.916043e+01	0	0
4169766	2.386060e+00	-1.446490e+02	-3.065664e+00	0	0
4171719	2.387000e+00	-1.530954e+02	-3.426657e+00	0	0
4173672	2.387000e+00	-1.545314e+02	-4.144702e+00	0	0
4175625	2.387000e+00	-1.676903e+02	1.295098e+01	0	0
4177578	2.387060e+00	-1.678487e+02	8.009684e+01	0	0
4179531	2.388000e+00	-1.581720e+02	-7.559211e+00	0	0
4181484	2.388000e+00	-1.609746e+02	-2.902074e-01	0	0
4183438	2.388000e+00	-1.535117e+02	-4.688944e+00	0	0
4185391	2.388061e+00	-1.668056e+02	-8.353995e+01	0	0
4187344	2.389000e+00	-1.520732e+02	-3.782427e+01	0	0
4189297	2.389000e+00	-1.684122e+02	4.697710e-01	0	0
4191250	2.389061e+00	-1.641651e+02	-5.660836e-01	0	0
4193203	2.390000e+00	-1.786990e+02	-1.387800e+00	0	0
4195156	2.390000e+00	-1.707082e+02	4.222980e+00	0	0
4197109	2.390061e+00	-1.627741e+02	7.631193e+01	0	0
4199063	2.391000e+00	-1.577508e+02	1.627435e+01	0	0
4201016	2.391000e+00	-1.408864e+02	1.337962e+00	0	0
4202969	2.391000e+00	-1.413976e+02	-2.600315e+00	0	0
4204922	2.391061e+00	-1.199576e+02	-7.404172e+01	0	0
4206875	2.392000e+00	-1.553205e+02	-5.905726e+01	0	0
4208828	2.392061e+00	-1.546811e+02	-1.920807e+01	0	0
4210781	2.393000e+00	-1.643672e+02	-2.398373e+00	0	0
4212734	2.393000e+00	-1.674864e+02	-4.146881e+00	0	0
4214688	2.393000e+00	-1.640230e+02	4.952828e-01	0	0
4216641	2.393062e+00	-1.528753e+02	7.041541e+01	0	0
4218594	2.394000e+00	-1.451004e+02	4.244747e+01	0	0
4220547	2.394000e+00	-1.352934e+02	2.563402e+00	0	0
4222500	2.394000e+00	-1.256030e+02	3.938633e-01	0	0
4224453	2.394062e+00	-1.146689e+02	-6.910692e+01	0	0
4226406	2.395000e+00	-1.056796e+02	-6.805435e+01	0	0
4228359	2.395000e+00	-1.205062e+02	-4.301614e+01	0	0
4230313	2.395062e+00	-1.148283e+02	8.401395e+00	0	0
4232266	2.396000e+00	-1.145093e+02	6.923883e+00	0	0
4234219	2.396000e+00	-1.054322e+02	9.186419e+00	0	0
4236172	2.396000e+00	-1.190394e+02	4.929801e+01	0	0
4238125	2.396062e+00	-1.076715e+02	7.975150e+01	0	0
4240078	2.397000e+00	-1.049492e+02	-1.359255e+00	0	0
4242031	2.397000e+00	-8.782769e+01	3.625839e+00	0	0
4243984	2.397062e+00	-7.932039e+01	-1.923070e+00	0	0
4245938	2.398000e+00	-7.516863e+01	-7.535877e+01	0	0
4247891	2.398000e+00	-7.644513e+01	-3.412809e+01	0	0
4249844	2.398062e+00	-6.955329e+01	-4.375966e+00	0	0
4251797	2.399000e+00	-7.655256e+01	-5.543313e+00	0	0
4253750	2.399000e+00	-9.739293e+01	-5.189063e+00	0	0
4255703	2.399062e+00	-7.454677e+01	2.656915e+00	0	0
4257656	2.400000e+00	-5.799329e+01	6.655560e+01	0	0
4259609	2.400000e+00	-5.652093e+01	-2.543318e+00	0	0
4261563	2.400000e+00	-4.001436e+01	2.689911e+00	0	0
4263516	2.400063e+00	-3.204983e+01	9.986641e-01	0	0
4265469	2.401000e+00	-4.291692e+01	-5.794527e+01	0	0
4267422	2.401000e+00	-4.591688e+01	-1.463649e+01	0	0
4269375	2.401063e+00	-6.055618e+01	5.569337e+00	0	0
4271328	2.402000e+00	-4.886131e+01	4.098122e+00	0	0
4273281	2.402000e+00	-4.971867e+01	1.138199e+00	0	0
4275234	2.402063e+00	-3.421888e+01	3.993261e+00	0	0
4277188	2.403000e+00	-2.440847e+01	6.451477e+01	0	0
4279141	2.403000e+00	-1.141061e+01	4.451815e+00	0	0
4281094	2.403063e+00	-1.241096e+01	1.742612e+00	0	0
4283047	2.404000e+00	-1.711671e+01	-2.517216e+00	0	0
4285000	2.404000e+00	-1.674500e+01	-6.750071e+01	0	0
4286953	2.404063e+00	-3.868538e+00	-5.303503e+01	0	0
4288906	2.405000e+00	2.986394e+00	-1.262531e+01	0	0
4290859	2.405000e+00	1.542713e+01	1.969920e+00	0	0
4292813	2.405000e+00	1.054602e+01	6.189125e-01	0	0
4294766	2.405064e+00	9.595382e+00	4.970300e+00	0	0
4296719	2.406000e+00	1.715106e+01	7.208962e+01	0	0
4298672	2.406000e+00	1.177017e+01	3.022385e+01	0	0
4300625	2.406000e+00	2.493116e+01	7.619699e-01	0	0
4302578	2.406064e+00	3.360404e+01	-2.855385e+00	0	0
4304531	2.407000e+00	5.841364e+01	-7.590307e+01	0	0
4306484	2.407064e+00	5.560440e+01	-5.200672e+01	0	0
4308438	2.408000e+00	7.401129e+01	-2.725627e+01	0	0
4310391	2.408000e+00	7.698518e+01	1.453048e+00	0	0
4312344	2.408000e+00	6.934360e+01	-8.589387e-01	0	0
4314297	2.408064e+00	6.997409e+01	3.551144e+00	0	0
4316250	2.409000e+00	8.341880e+01	8.431223e+01	0	0
4318203	2.409000e+00	1.011272e+02	8.104100e+01	0	0
4320156	2.409064e+00	9.330101e+01	-3.863614e+00	0	0
4322109	2.410000e+00	1.011222e+02	3.582844e-01	0	0
4324063	2.410000e+00	1.298300e+02	-1.239005e+01	0	0
4326016	2.410065e+00	1.625098e+02	-9.143832e+01	0	0
4327969	2.411000e+00	1.979714e+02	-5.073018e+01	0	0
4329922	2.411000e+00	2.665233e+02	5.912691e-01	0	0
4331875	2.411065e+00	2.726184e+02	-1.014208e+00	0	0
4333828	2.412000e+00	2.373838e+02	-1.070261e-01	0	0
4335781	2.412000e+00	2.194467e+02	3.429016e+01	0	0
4337734	2.412000e+00	1.757741e+02	8.213541e+01	0	0
4339688	2.412065e+00	1.702015e+02	-3.868199e+00	0	0
4341641	2.413000e+00	1.917811e+02	1.993647e+00	0	0
4343594	2.413000e+00	2.236499e+02	-5.793629e+00	0	0
4345547	2.413065e+00	2.374354e+02	-8.273708e+01	0	0
4347500	2.414000e+00	2.555080e+02	-2.921588e+01	0	0
4349453	2.414000e+00	2.732797e+02	-1.303295e+00	0	0
4351406	2.414065e+00	2.768655e+02	-1.233738e+00	0	0
4353359	2.415000e+00	2.943140e+02	-2.720775e+00	0	0
4355313	2.415000e+00	3.048890e+02	1.703393e+00	0	0
4357266	2.415000e+00	3.207819e+02	6.982876e+01	0	0
4359219	2.415065e+00	3.535490e+02	1.192121e+01	0	0
4361172	2.416000e+00	3.847857e+02	9.911901e-01	0	0
4363125	2.416000e+00	3.992680e+02	-3.120757e+00	0	0
4365078	2.416065e+00	4.025925e+02	-7.130439e+01	0	0
4367031	2.417000e+00	3.999632e+02	-6.220623e+01	0	0
4368984	2.417000e+00	4.121897e+02	-1.255570e+01	0	0
4370938	2.417066e+00	4.202116e+02	-1.103586e+00	0	0
4372891	2.418000e+00	4.188784e+02	-2.764280e+00	0	0
4374844	2.418000e+00	4.397934e+02	1.995437e+00	0	0
4376797	2.418000e+00	4.555494e+02	7.050305e+01	0	0
4378750	2.418066e+00	4.674960e+02	4.510495e+01	0	0
4380703	2.419000e+00	4.901185e+02	2.635401e+00	0	0
4382656	2.419000e+00	4.917179e+02	1.788055e+00	0	0
4384609	2.419066e+00	4.989535e+02	-6.691404e+01	0	0
4386563	2.420000e+00	4.929579e+02	-6.169908e+01	0	0
4388516	2.420000e+00	4.787887e+02	-2.219080e+01	0	0
4390469	2.420066e+00	4.628921e+02	4.012444e+00	0	0
4392422	2.421000e+00	4.392739e+02	-7.965617e-01	0	0
4394375	2.421000e+00	4.240654e+02	2.121682e+00	0	0
4396328	2.421066e+00	3.945003e+02	6.585990e+01	0	0
4398281	2.422000e+00	3.853637e+02	6.879785e+01	0	0
4400234	2.422000e+00	3.740842e+02	-1.316230e+01	0	0
4402188	2.422067e+00	3.441773e+02	-1.234744e+01	0	0
4404141	2.423000e+00	3.182138e+02	-2.080359e+01	0	0
4406094	2.423000e+00	2.749398e+02	-9.691552e+01	0	0
4408047	2.423067e+00	2.426564e+02	-4.860249e+01	0	0
4410000	2.424000e+00	2.183551e+02	-9.810412e+00	0	0
4411953	2.424000e+00	2.044886e+02	-6.374480e+00	0	0
4413906	2.424000e+00	1.419006e+02	-6.149766e+00	0	0
4415859	2.424067e+00	1.107955e+02	2.052969e+01	0	0
4417813	2.425000e+00	8.656519e+01	7.216676e+01	0	0
4419766	2.425000e+00	8.426551e+01	-4.464059e+00	0	0
4421719	2.425000e+00	6.675273e+01	6.692725e+00	0	0
4423672	2.425067e+00	2.870855e+01	4.824141e+00	0	0
